-0.4582011,-0.6078945,-0.2016555,-0.2701186,-0.4854097,-0.2425342,-0.3968891,-0.2810527,-0.2379557,-0.1836530,-0.3420638,-0.7637945,-0.5326732,-0.5502026,0.2142419,-0.4456589,-0.7800890,-0.2510790,-0.1220246,-0.2817154,-0.3710215,-0.4382726,-0.3580312,0.1048678,-0.2622438,-0.5681698,-0.4069441,-0.4444804,-0.3943067,-0.6702263,-0.3773338,-0.8480011,-0.4490374,-0.4801232,-0.6793806,-0.5673814,-0.2723263,-0.3413207,-0.4860596,-0.2157304,-0.1884190,-0.4192876,-0.5750061,-0.2949317,-0.3263988,-0.2438728,-0.4561638,-0.6312283,-0.3430390,-0.3325429,-0.2161808,-0.3254165,-0.2506255,-0.3971561,-0.3197073,-0.3663273,-0.3495027,-0.0652567,-0.3460045,-0.6339569,-0.4298055,-0.4884027,-0.2752095,-0.2579557,-0.2313429,-0.4035777,-0.4024671,-0.2147158,-1.0477887,-0.3648452,-0.4980573,-0.2974179,-0.4864669,-0.3564058,-0.4711341,-0.3551870,-0.2579731,-0.3032603,-0.0508874,0.4266557,-0.2589254,-0.4567555,-0.4891479,-0.0285882,-0.3456182,-0.3670306,-0.3490738,-0.6359110,-0.4760830,-0.1096305,-0.2703922,-0.4022004,-0.5354730,-0.4611540,-0.4446616,-0.3545062,-0.8414419,-0.3600942,-0.5991140,-0.7994674,-0.3119902,-0.0108768,-0.3272170,-0.4855506,-0.2373538,-0.5141141,-0.4264072,-0.3594333,-0.4552310,-0.3497628,-0.3240452,-0.5846030,0.2047586,-0.2963842,-0.6092567,-0.2303546,-0.6118237,-0.2400167,-0.1344753,-0.2987663,-0.4055811,-0.3895944,-0.3347878,-0.4634220,-0.3860860,-0.5236284,-0.5668977,-0.5979541,-0.3524958,-0.3727763,-0.6647940,-0.3231946,-0.4690679,-0.3634574,-0.2726600,-0.1935885,-0.3170031,-0.4011113,-0.8519524,-0.4794579,-0.8021659,-0.2363209,-0.2686453,-0.4984318,-0.4863009,-0.6083019,-0.3142906,-0.2581883,-0.0584657,-0.6363427,-0.5681305,-1.1147846,-0.3737443,-0.3792301,-0.1111919,-0.3590930,-0.1949751,-0.3774145,-0.3982614,-0.4851439,-0.3547624,-0.3376948,-0.2140877,-0.3088501,-0.4376075,-0.0330184,-0.2516769,-0.2550742,-0.3202078,-0.6179451,-0.4878311,-0.4916709,0.0888175,-0.6102257,-0.2358910,-0.2315650,-0.1186559,-0.3154176,-0.4349541,-0.2543945,-0.1889997,-0.7854416,0.1024133,-0.7081330,-0.1177721,-0.3916637,-0.3575038,-0.2456520,-0.4326130,-0.3585302,-0.9440311,-0.5737475,-0.1695980,-0.0297802,-0.1378055,-0.2010427,-0.1325043,-0.1819810,-0.6378075,-0.6497006,-0.2935313,0.3274761,-0.2768551,-0.2034867,-0.3739235,-0.5348512,-0.3550513,-0.2307898,-0.5003824,-0.3149265,-0.2715541,-0.3110071,-0.2802509,-0.1087539,-0.3992944,-0.4142496,-0.3289278,-0.3546933,-0.7964270,-0.2480191,-0.2603256,-0.4573825,-0.3410758,-0.2925777,-0.3320847,-0.3407681,-0.4739572,-0.3442824,-0.3816917,-0.7377086,-0.3359856,-0.2657762,-0.3816343,-0.7763382,-0.1305986,-0.4243104,-0.3498794,-0.2655016,-0.2318188,-0.3380792,-0.3982807,-0.2072634,-0.3814971,-0.6175219,-0.2513148,-0.7150846,0.0553122,-0.0097600,-0.1506428,-0.4328582,-0.7349003,-0.5264744,-0.3348020,-0.4272355,-0.3435945,-0.2740155,-0.2995136,-0.4111814,-0.2814429,-0.3668514,-0.2988844,-0.5911597,-1.0739775,-0.5418075,-0.2779304,-0.4056332,-0.4877333,-0.1921474,-0.3340334,-0.3781204,-0.6529856,-0.5494192,-0.4843237,-0.7384890,-0.4999968,-0.3018970,-0.1489805,-0.4059612,-0.3126200,-0.2643466,-0.5484514,-0.3204851,-0.3217887,0.0992621,-0.4572517,-0.1266831,-0.2945303,-0.4595600,-0.1126500,-0.0922003,-0.2733207,-0.3551230,-0.5201157,-0.4101881,-0.5615969,-0.1533318,-0.3070054,-0.4193963,-0.4108635,-0.6978368,-0.5495285,-0.3944513,-0.2539991,-0.3542764,-0.5365913,-0.2613841,-0.6972319,-0.6354500,-0.1648816,-0.3897573,-0.3723734,-0.3253937,-0.6183067,-0.2612187,-0.2722034,-0.3555517,-0.3964702,-0.3588515,-0.9201011,-0.2651677,-0.4806660,-1.3299843,-0.3653385,-0.1523388,-0.2322594,-0.2563127,-0.3448102,-0.6255823,-0.0556254,-0.4873959,-0.2620140,-0.3343297,-0.5362071,-0.4049652,0.5159053,-0.7979853,-0.4968650,-0.8085856,-0.4128061,-0.4924018,-0.5405595,-0.3110077,-0.5580880,-0.3105768,-0.5326756,-0.3494492,-0.7798871,-0.3169235,-0.6060337,-0.1063005,-0.4726507,-0.3576950,0.0694792,-0.3344290,-0.5569187,-0.3063495,-0.6196277,-0.3610754,-0.3899459,-0.1930992,-0.4546099,-0.2956957,-0.5308226,-0.7643321,-0.2906101,-0.1706628,-0.2098104,-0.3958996,-0.5037249,-0.3104931,-0.3066057,-0.1838931,-0.5775503,-0.2530457,-0.2371196,-0.4219346,-0.3375922,-0.2493140,-0.6205475,-0.4948697,-0.3514403,-0.3353901,-0.0221707,-0.5074762,-0.3165739,-0.4088326,-0.2641265,-0.2163329,-0.4647990,-0.6850924,-0.5571690,-0.3226495,-0.4480700,-0.5531448,-0.3111793,-0.5000872,-0.3107228,-0.7233776,-0.3411698,-0.2400078,-0.2899161,-0.1973726,-0.4570762,-0.3131979,-0.3634840,0.0195581,-0.2985428,-0.4794687,-0.2551865,-0.2002290,-0.5581251,-0.6901758,-0.4903448,-0.2890671,-0.3535777,-0.4616995,-0.3584669,-0.4216862,-0.3026761,-0.7784540,-0.9456028,-0.5566888,0.1587888,-0.2327751,-0.3333062,-0.5695732,-0.5475753,-0.3078686,-0.2777348,-1.2522697,-0.2297058,-0.3825456,-0.4056747,-0.2816821,-0.4252221,-0.3468309,-0.3269163,-0.3427549,-0.3760934,-0.1225600,0.6851159,-0.2936873,-0.3532258,-0.2561417,-0.8954946,-0.2685884,-0.2709800,-0.3238134,-0.6346818,-0.2574704,-0.9001830,-0.7350041,-0.4620462,-0.3029592,-0.4685915,-0.7897502,-0.3264816,-0.3090945,-0.6619573,-0.2734616,-0.3831878,0.7030856,0.1714105,-0.2744479,-0.2007653,-0.3315887,-0.5321109,-0.3054993,-0.1602116,-0.1771019,-0.3453926,-0.4516867,-0.1414482,-0.4271702,-0.4930752,-0.4087472,-0.8292712,-0.1455456,-0.2300861,-0.5641512,-0.6644518,-0.5347607,-0.4173569,-0.2428945,-0.4865903,-0.3169940,-0.2176229,-0.4244885,-0.3354708,-0.6134382,0.3005829,-0.4826552,-0.3421233,-0.3967147,-0.4187854,0.1626357,-0.3865882,-0.2477076,-0.3067366,-0.6064923,-0.3451459,-0.2988413,-0.3664166,-0.3008178,-0.4994205,-0.4634224,-0.2485642,-0.4148776,-0.5550715,-0.4434504,-0.3859591,-0.2561281,-0.4981973,-0.2905337,-0.3697801,-0.5567306,-0.2136851,-0.5753523,-0.1608590,-0.3005657,-0.3855049,-0.4788400,-0.5994009,-0.6969338,-0.8054333,-0.3035677,-0.4749072,-0.4516226,-0.4518310,-0.6264098,-0.3506070,-0.1947475,-0.4822549,-0.3097348,-0.4545867,-0.4400778,-0.6316650,-0.1039299,-0.2681738,-0.4530956,-0.5258744,-0.4898855,-0.2679418,-0.2736882,-0.4268577,-0.5847663,-0.6027119,-0.4310021,-0.3467735,-0.4050071,-0.4033171,-0.3035313,-0.5721043,-0.2364686,-0.4381818,-0.5628912,-0.4429405,-0.3739228,-0.2823939,-0.5362355,-0.1847083,-0.1961308,-0.4617498,-0.5687473,-0.3675855,-0.1763028,-0.3925387,-0.2957831,-0.3470630,-0.7238252,-0.1552986,-0.8424520,-0.2528870,-0.5799558,-0.5443546,-0.3124602,-0.3090892,-0.3586148,-0.6273415,-0.4474867,-0.5768812,-0.4740484,-0.7325987,-0.2107856,-0.4873981,-0.3871102,-0.4173792,-0.1857072,-0.3010909,-0.1495549,-0.4783979,-0.4275558,-0.3673368,-0.4700594,-0.2199328,-0.6378633,-0.8267906,-0.3700795,-0.1427021,-0.5574210,-0.3614585,-0.5331938,-0.5246024,-0.4927857,-0.7693328,-0.4035376,-0.3820100,-0.3044789,-0.7095676,-0.2909746,-0.3315707,0.6744948,-0.2776996,-0.6694174,-0.2231534,-0.2347561,-0.4230059,-0.0381854,-0.5343457,0.0407856,-0.3382676,-0.6115330,-0.4318717,-0.4733574,-0.2953453,-0.4547187,-0.5851871,-0.1878915,-0.3980511,-0.4485301,-0.2463132,-0.4845074,-0.4431396,-0.6631833,-0.5442383,-0.4009567,-0.6877835,-0.8322281,-0.4687270,-0.2612863,-0.3469031,-0.2844529,-0.4704211,-0.2518500,-0.0789380,-0.2674423,-0.4885349,-0.5758595,-0.6141931,-0.7370136,-0.4336700,-0.2758349,-0.4923624,-0.3264336,0.2030650,-0.3256056,-0.2459525,-0.3475450,-0.2075000,-0.3034775,-0.3197199,-0.3835080,-0.2938993,-0.2365919,-0.7457992,-0.2475612,-0.3671185,-0.5135248,-0.3845977,-0.6246956,-0.3975352,-0.5258800,-0.3502204,-0.4993857,-0.3277422,-0.1310678,-0.1631908,-0.6350971,-0.6250005,-0.6082731,-0.5196099,-0.4365098,-0.4478897,-0.5129342,-0.3993457,-0.2717835,-0.3571730,-0.5217066,-0.3685267,-0.4310032,-0.2400650,-0.4221403,-0.3350576,-0.4439554,-0.3128348,-0.6934894,-0.2672762,-0.6071343,-0.2064447,0.0066326,-0.2861452,-0.2870442,-0.3291011,-0.6747475,-0.2926961,-0.7692851,-0.3538288,-0.3405713,-0.3315849,-0.6560910,-0.5326341,-0.3077089,-0.4773671,-0.2509028,-0.3924715,-0.4023618,-0.3226423,-0.5460576,-0.3090388,-0.3053952,-0.3258337,-0.3741374,-0.4423877,-0.6273401,-0.0976388,-0.2750053,-0.2052060,-0.2356511,-0.4717053,-0.2595624,-0.6360781,-0.1294732,-0.2890903,-0.1922329,-0.2009468,-0.2473939,-0.3874438,-0.3845733,-0.6830814,-0.4321987,-0.1680433,-0.2833154,-0.3455912,-0.2932357,-0.2486912,-0.4494414,-0.2668879,-0.3048523,-0.2558072,-0.3436103,-0.2664947,-0.2891213,-0.5799453,-0.3621785,-0.4246797,0.4780088,-0.4137263,-0.6335083,-0.3603812,-0.1359889,-0.0961220,-0.2487815,-0.3982634,-1.7194808,-0.4184484,-0.2669534,-0.2885186,-0.4486108,-0.4648989,-0.8899410,-0.5727345,-0.3492148,-0.2577857,-0.4594719,-0.2807781,-0.2355627,-0.2961908,-0.2705306,-0.6662660,-0.2545698,-0.2431294,-0.1634378,-0.7735675,-0.0780368,-0.7552253,-0.6799321,-0.2075732,-0.7826108,-0.2977642,-0.3307873,-0.1078867,-0.2883637,-0.3591209,-0.2610642,0.4814871,-0.4381191,-0.5188583,-0.2657394,-0.4013008,-0.4269768,-0.3604305,-0.4923077,-0.4830771,-0.3216763,-0.3905677,-0.4637606,-0.8303506,-0.5894769,-0.4669025,-0.2392639,-0.2611445,-0.2876354,-0.4012971,-0.6449436,-0.1799708,-0.1568965,-0.2850294,-0.2617941,-0.2866784,-0.3233418,-0.2568002,-0.3514600,-0.2200817,-0.3414587,-0.4265306,-0.4534859,-0.7494079,-0.3279377,-0.4023842,-0.5396602,-0.2692148,-0.5258524,-0.4341996,-0.3220422,-0.6251329,-0.2243318,-0.6197798,-0.3780591,-0.5354916,-0.2868101,-0.3256637,-0.3582928,-0.3509828,-0.0756587,-0.6334088,-0.1783203,-0.4695676,-0.3436512,-0.5228896,-0.3877711,-0.1413185,-0.5218341,-0.4882777,-0.3088335,-0.3570634,-0.2377631,-0.1764200,-0.2000492,-0.3054723,-0.3579927,-0.3100113,-0.2889590,-0.3218241,-0.0871628,-0.6640671,-0.3195388,-0.2505070,-0.4206577,-0.1999376,-0.2536120,-0.2062634,-0.5691960,-0.5758398,-0.3819225,-0.5228860,-0.4042581,-0.1331044,-0.3960709,-0.4088345,-0.2087857,-0.3696689,-0.2834741,-0.3770187,-0.2825715,-0.5606954,-0.3211115,-0.6524498,-0.3560963,-0.1099240,-0.1413429,-0.1586292,-0.3955927,-0.2073698,-0.2962109,-0.3787981,-0.6804481,-0.2805628,-0.3221183,-0.3107824,0.4867662,-0.3722560,-0.3255096,-0.3251439,-0.5870094,-0.4032498,-0.4424040,-0.1622008,-0.5623588,-0.3556449,-0.4851100,-0.4430158,-0.2503896,-0.2866197,-0.2982741,-0.3652271,-0.3515740,-0.3286620,-0.5933750,-0.2890550,-0.4683391,-0.1914844,-0.2388575,-0.2404962,-0.2331022,-0.1099686,-0.4059234,-0.2391020,-0.4211324,-0.4026836,-0.3044277,-0.0517512,-0.4716764,-0.4198267,-0.4499529,-0.8656971,-0.1429394,-0.7562481,-0.2579291,-0.3389850,-0.3681851,-0.2180058,-0.3329231,-0.4695955,-0.3929339,-0.3513173,-0.3165355,-0.3528803,-0.4274929,-0.6890660,-0.2944816,-0.3712000,-0.2990866,-0.5357555,-0.3832553,0.2359688,-0.4849764,-0.2601363,-0.1975309,-0.3527594,-0.3543557,-0.4625309,-0.2808456,-0.4334089,-0.0705971,-0.2155479,-0.1486422,-0.3286601,-0.3324296,-0.4550837,-0.3007802,-0.2341998,-0.0310944,-0.7475446,-0.2792027,-0.3397512,-0.3533954,-0.2186317,-0.5696720,-0.3088640,-0.2885820,-0.5462022,-0.3179095,-0.3441627,-0.8911126,-0.6577097,-0.3606981,0.2685421,-0.5046331,-0.1192498,-0.2662562,-0.5512587,-0.3301484,-0.0793824,-0.3821023,-0.3731035,-0.3231058,-0.6258375,-0.3363145,-0.4251398,-0.3229253,-0.3504687,-0.1010591,-0.3690990,-0.3217043,-0.3632475,-0.2665747,0.0133175,-0.2518181,-0.0777839,-0.2324491,-0.4940563,-0.4389529,-0.3830687,-0.5843735,-0.1355354,-0.2322374,-0.6080662,-0.3774515,-0.3674868,-0.6549991,-0.6099538,-0.6104801,-0.1142732,-0.1871208,-0.2185432,-0.3662818,-0.4260814,-0.3137642,-0.5190945,-0.3973140,-0.5160151,-0.2043818,-0.3840774,-0.4111623,0.4018937,-0.6686130,-0.3061108,-0.5297624,-0.3775289,-0.3332016,-0.5377521,0.1248338,-0.2151702,-1.2832457,-0.7240162,-0.2694429,-0.1756382,-0.1614478,-0.8379015,-0.2710701,-0.0275958,-0.2829993,-0.2643722,-0.7105627,-0.6654103,-0.5728606,-0.2795909,-0.3586714,-0.2853791,-0.2183505,-0.4284410,-0.3932731,-0.2106095,-0.5537708,-0.3691961,-0.2946116,-0.2254847,-0.4174705,-0.3414960,0.3714579,-0.3953819,-0.4645950,-0.5966785,-0.3150603,-0.2209667,-0.1754410,-0.3437604,-0.1638119,-0.5835642,-0.0273027,-0.4655738,-0.1571710,-0.2454495,-0.0353229,-1.4533066,-0.2688203,-0.2166484,-0.2145021,-0.4568215,-0.4597397,-0.5630496,-0.4090646,-0.1733198,-0.3138068,-0.2758645,-0.7645161,-0.2395368,-0.3555211,-0.2268008,-0.4313892,-0.6766557,-0.6715820,-0.3027830,-0.5178778,-0.3202296,-0.3518001,-0.4395042,-0.3145059,-0.5112538,-0.2344506,-0.3008190,-0.3212167,-0.3960401,-0.2608510,-0.2812363,-0.3684406,-0.1966574,-0.6197402,-0.4074415,-0.3487575,-0.2377096,-0.5125470,-0.1766765,-0.3832673,-0.3773870,-0.0804273,-0.2942334,-0.1985791,-0.4074066,-0.4082715,-0.3650658,-0.3592946,-0.3532347,-0.2686625,-0.3685850,-0.5610356,-0.3340511,-0.1845886,-0.3255490,-0.3557240,-0.0921926,-0.4896735,-0.6487045,-0.4328972,-0.3886490,-0.3262219,-0.6994210,-0.3151924,1.0049070,-0.3824252,-0.3046181,-0.4826015,-0.2543571,-0.4333673,-0.4450857,-0.5343549,-0.0930657,-0.2805489,-0.5140349,-0.5686523,-0.4486359,-0.4840763,-0.5467408,-0.4708722,-0.5604874,-0.5372338,-0.3626101,-0.3335320,-0.3937795,-0.2866412,-0.1669578,-0.6175406,-0.4540068,-0.6046492,-0.5282187,-0.3495714,-0.2881571,-0.6111882,0.2186589,-0.3345845,-0.4536185,-0.5683790,-0.3453193,-0.6385630,-0.4014625,-0.2761068,-0.6908614,-0.3504332,-0.3755683,-0.3864203,-0.3115725,-0.5383554,0.0674267,-0.2662514,-0.3729929,-0.2785194,-0.2055202,-0.3764053,-0.3767759,-0.4553031,-0.6102552,-0.6067752,-0.3485288,-0.3815715,-0.4471328,-0.3496218,-0.5353196,-0.2390494,-0.2621749,-0.3752217,-0.4552007,-0.0690392,-0.2889574,-0.2969905,-0.3173633,-0.2732057,-0.6283237,-0.5839287,-0.4246055,-1.0923607,-0.3813339,-0.3145772,-0.3488426,-0.3941063,-0.2877166,-0.2580635,-0.1427583,-0.2834476,-0.3198959,-0.5133561,-0.1880971,-0.3762313,-0.1284540,-0.4745202,-0.3023642,-0.4724089,-0.6870751,-0.1828574,-0.4917141,-0.6633440,-0.2197474,-0.3755439,-0.2443059,-0.3982731,-0.3304943,-0.1723130,-0.1165628,-0.3142515,-0.1778912,-0.3260550,-0.3613406,-0.1467294,-0.3509272,-0.2181416,-0.1293391,-0.5643114,-0.3443411,-0.7047414,-0.3485796,-0.5830246,-0.2564451,-0.2024924,-0.4633674,-0.1671073,-0.3815852,-0.3147751,-0.6002021,-0.2696324,-0.4405164,-0.4203165,-0.3860839,-0.5377577,-0.6253301,-0.5453938,-0.4011136,-0.2166822,-0.3541203,-0.1160573,-0.2755475,-0.3824723,-0.6959513,-0.3093732,-0.5145762,-0.5468521,-0.1874070,-0.5640275,-0.5168207,-0.3049702,-0.2505160,-0.3266999,-0.3771695,-0.3594082,-0.1004091,0.0184618,-0.6072949,-0.3637496,-0.3558902,-0.6893035,-0.4885449,-0.3512655,-0.9492007,-0.5798439,-0.4246212,-0.9413440,-0.7530763,-0.7322069,-0.3743005,-0.6055666,-0.2005629,-0.4843735,-0.4019775,-0.2617156,-0.3385241,-0.2968079,-0.6383225,-0.3414717,-0.3991364,-0.3683563,-0.1995079,-0.2812498,-0.2672254,-0.5139608,0.7686995,-0.3974091,-0.1780135,-0.4369566,-0.2522424,-0.3521037,-0.4046609,-0.4575483,-0.6416494,-0.5355535,-0.3977609,-0.3060891,-0.0888167,-0.1631195,-0.6165499,-0.5970985,-0.3451657,-0.3645500,-0.3594324,-0.2735631,-0.3711762,-0.2698686,-0.4105171,-0.2517454,-0.3505626,-0.5358040,-0.3382324,-0.4742708,-0.2955777,-0.3592325,-0.4900624,-0.3295031,-0.3222075,-0.3194982,-0.3241383,-0.6682624,-0.6273459,-0.3065481,-0.3467261,-0.3366342,-0.4012576,-0.2713979,-0.4902993,-0.3034691,-0.3550944,-0.8573687,-0.1284413,-0.4986688,-0.6748684,-0.4682222,-0.1649335,-0.6613420,-0.5333623,-0.3320872,-0.5542098,-0.2817990,-0.2878309,-0.3647787,-0.3306971,-0.4707161,-0.6690211,-0.3287938,-0.3817944,-0.3015191,-0.2895272,-0.4602960,-0.4782501,-0.4466566,-0.3219326,-0.4777252,-0.3988426,-0.2887989,-0.3022072,-0.3473417,-0.6451648,-0.3517516,-0.3202685,-0.3518728,-0.3200518,-0.3287939,0.0867937,-0.2860587,-0.1275501,-0.3402392,-0.4820488,-0.3234821,-0.3911361,-0.2706015,-0.4598046,-0.9130803,-0.2348155,-0.3425233,-0.4728153,-0.2932726,-0.5670217,-0.4139167,-0.2787948,-0.4144307,-0.8866834,-0.1181023,-0.1951458,-0.2537989,-0.3267460,-0.2049660,-0.8292694,0.1246164,-0.3168213,-0.4044593,-0.3761001,-0.8093567,-0.3392479,-0.3936604,-0.9691444,-0.3558624,-0.2249754,-0.5494250,-0.3040200,-0.3499345,-0.2769324,-0.6090989,-0.6611529,-0.6563856,-0.2698519,-0.3661159,-0.2619436,-0.2428056,-0.2257602,-0.4622419,-0.4374897,-0.3639761,-0.3614192,-0.3540705,-0.2526787,-0.4436174,-0.7181101,-0.4217022,-0.2688989,-0.4211328,-0.2029502,-0.6220053,-0.9518464,-0.5516831,-0.5573478,-0.2387914,-0.4304962,-0.3201261,-0.2872793,-0.5056347,-0.5565536,-0.3217560,-0.4955796,-0.4084458
-0.3789841,-0.5726346,-0.0164361,-0.1322443,-0.4068379,-0.0829371,-0.2774340,-0.1407900,-0.0661331,-0.0090416,-0.2340019,-0.7277713,-0.4669286,-0.4923985,0.9203591,-0.3539481,-0.7336615,-0.0521865,0.1550128,-0.1122809,-0.2687953,-0.3309079,-0.2391807,0.5296907,-0.1116440,-0.5062523,-0.3021215,-0.3677446,-0.2644693,-0.6256169,-0.1966995,-0.8151086,-0.3635947,-0.3933451,-0.6328087,-0.5111340,-0.0648075,-0.1994768,-0.4119290,-0.1078634,-0.0151881,-0.3385904,-0.5206594,-0.1676878,-0.2157941,-0.0708845,-0.3835402,-0.5810742,-0.2288349,-0.2204736,-0.0530037,-0.2239343,-0.1659900,-0.3274004,-0.1675222,-0.2458532,-0.2155710,0.3458824,-0.2855551,-0.5839074,-0.3427669,-0.4128173,-0.1367321,-0.0799675,-0.0057089,-0.2965581,-0.3120948,-0.0559079,-1.0134962,-0.2622098,-0.4316322,-0.1697552,-0.4137848,-0.2102466,-0.3868475,-0.2491069,-0.1673357,-0.1392223,0.2616341,1.2180930,-0.0949871,-0.3671405,-0.4108495,0.2067221,-0.1910460,-0.2480187,-0.2360498,-0.5898807,-0.4011751,0.0664014,0.0658139,-0.3006533,-0.4714750,-0.3825335,-0.3488586,-0.2546230,-0.8185080,-0.2580480,-0.5490934,-0.7642640,-0.1800164,0.2785419,-0.2091998,-0.4060914,-0.0533034,-0.4419577,-0.3233272,-0.1950690,-0.3528261,-0.2241093,-0.1643676,-0.5262603,0.7498944,-0.1353797,-0.5600467,-0.0934945,-0.5624816,-0.0832036,0.1177972,-0.0975576,-0.3022007,-0.3142752,-0.1758258,-0.3919837,-0.3326144,-0.4562216,-0.5098654,-0.5577137,-0.2464717,-0.2377976,-0.6193302,-0.2081695,-0.3541103,-0.2152961,-0.1278094,0.0161448,-0.1363750,-0.2859750,-0.8312863,-0.4000092,-0.7699586,-0.0662031,-0.1135179,-0.4262438,-0.4174677,-0.5511141,-0.1799554,-0.1424156,0.1892152,-0.5890562,-0.5140911,-1.0896219,-0.2643180,-0.3475248,0.0110306,-0.2776577,-0.0087205,-0.3039254,-0.2687760,-0.3987888,-0.2219902,-0.2226520,-0.0604573,-0.1442819,-0.3481768,0.0388752,-0.0958522,-0.2143794,-0.2888754,-0.5688252,-0.4115503,-0.4160274,0.5214189,-0.5617374,-0.0783056,-0.0179607,0.2124840,-0.1993133,-0.3554786,-0.0601236,-0.0050506,-0.7497531,0.5340964,-0.6641260,-0.0076239,-0.2977895,-0.2031559,-0.0637763,-0.3259595,-0.2179826,-0.9144409,-0.5115944,0.0857314,0.2605130,0.0763253,0.1344056,0.0742816,-0.0214821,-0.6104956,-0.6033620,-0.2245349,0.3893376,-0.1307635,-0.0238208,-0.2109399,-0.4680086,-0.1729622,-0.0493588,-0.4203680,-0.1931847,-0.1222118,-0.1591424,-0.1413744,0.1291560,-0.2958705,-0.3262839,-0.1474378,-0.2722636,-0.7604834,-0.1662048,-0.0304452,-0.3827057,-0.1974544,-0.1309033,-0.1985570,-0.2545183,-0.3817616,-0.2412473,-0.2841774,-0.6834252,-0.2259271,-0.1517273,-0.3103455,-0.7388369,0.0277220,-0.3268847,-0.3017397,-0.1215571,-0.0914069,-0.1976648,-0.2687784,-0.0295558,-0.2531728,-0.5661955,-0.0865592,-0.6750204,0.2896806,0.1390867,0.0437139,-0.3404678,-0.7129033,-0.4009422,-0.2050793,-0.2975393,-0.1751406,-0.1994533,-0.1556077,-0.3033223,-0.1406681,-0.2339780,-0.2436572,-0.5282359,-1.0480465,-0.4779823,-0.1143407,-0.3040134,-0.3987343,-0.0406647,-0.1643543,-0.2393389,-0.6018295,-0.4906325,-0.4141828,-0.6966942,-0.4270275,-0.1776035,0.0775228,-0.2605646,-0.1040079,-0.0797891,-0.4850162,-0.2047507,-0.1978837,0.4312566,-0.3708922,0.0588622,-0.1137596,-0.3858217,0.2839370,0.3555751,-0.1419712,-0.2285197,-0.4505876,-0.2401732,-0.5050803,0.0435274,-0.2315863,-0.3094953,-0.3005798,-0.6527267,-0.4869431,-0.2761960,-0.1088624,-0.2242060,-0.4673759,-0.0925107,-0.6556242,-0.5706255,0.0405544,-0.2871155,-0.2981149,-0.1771609,-0.5646627,-0.1244024,-0.1064998,-0.1920024,-0.3556036,-0.2750208,-0.8899187,-0.1172939,-0.4116575,-1.3085285,-0.2401087,0.4621053,-0.0900517,-0.0274861,-0.1927743,-0.5751490,0.2919151,-0.4190648,-0.1081573,-0.1951541,-0.4729804,-0.2987338,0.9196240,-0.7648169,-0.4262616,-0.7730666,-0.3087405,-0.4088293,-0.4833706,-0.1532231,-0.4936478,-0.1351347,-0.4729450,-0.2222517,-0.6756021,-0.1756159,-0.5498651,-0.0485488,-0.3937305,-0.2981347,0.6174421,-0.2136880,-0.5008029,-0.1671867,-0.5221396,-0.2135043,-0.2825387,-0.0228859,-0.3667828,-0.1682389,-0.4237329,-0.7283203,-0.1418352,0.0100396,-0.0478864,-0.3101108,-0.4382278,-0.1607641,-0.1941354,0.0425452,-0.5169941,-0.0479451,-0.0422410,-0.2795956,-0.2643344,-0.0902773,-0.5703611,-0.4108957,-0.2227335,-0.2131252,0.2641297,-0.4419883,-0.1697018,-0.2974440,-0.0650490,-0.1450621,-0.3558569,-0.6363319,-0.4869082,-0.1336543,-0.3577757,-0.4826794,-0.2015161,-0.4359328,-0.0199567,-0.6814388,-0.1647987,-0.0707381,-0.1835208,0.0166779,-0.3832634,-0.2030773,-0.2063624,0.6142991,-0.1690411,-0.3858956,-0.1140554,-0.0343821,-0.4914387,-0.6471071,-0.4182944,-0.1670749,-0.2512613,-0.3779939,-0.2575596,-0.3187710,-0.0969646,-0.7376235,-0.8871860,-0.5120873,0.8832009,-0.1085482,-0.2432572,-0.5095502,-0.4849696,-0.1708634,-0.1275313,-1.2287177,-0.0595559,-0.2894832,-0.3262281,0.0453042,-0.3194422,-0.1999062,-0.1472827,-0.1278952,-0.2898507,0.1567341,1.4782765,-0.1329872,-0.2282209,-0.0829904,-0.8649021,-0.1331808,-0.1268532,-0.2518522,-0.5857399,-0.0955961,-0.8725436,-0.6929660,-0.3533605,-0.2380013,-0.4000171,-0.7537539,-0.2171089,-0.1999083,-0.6138033,-0.0924800,-0.3499843,1.2394153,0.6820999,-0.1746425,-0.0192790,-0.2260215,-0.4435811,-0.2296296,0.0523390,-0.0050928,-0.2292530,-0.3768563,0.0658164,-0.3426060,-0.4197963,-0.3305204,-0.7913585,0.1674238,-0.0773554,-0.5070350,-0.6174924,-0.4675863,-0.2828369,-0.1579203,-0.4100046,-0.2251504,-0.1046189,-0.3418646,-0.1638794,-0.5608487,0.8367189,-0.4161294,-0.1290988,-0.3257163,-0.3115054,0.6007511,-0.3012302,-0.0763320,-0.2428219,-0.5306959,-0.2144197,-0.1628393,-0.2434001,-0.1248436,-0.4273553,-0.4081267,-0.0841521,-0.3083660,-0.4945126,-0.3676530,-0.3184908,-0.1104840,-0.4329518,-0.0626846,-0.2409083,-0.4999401,-0.0435928,-0.5200039,0.0082184,-0.0874810,-0.2996815,-0.3887509,-0.5476744,-0.6462252,-0.7618620,-0.1397758,-0.4010237,-0.3707507,-0.3743885,-0.5793653,-0.1860044,-0.0752591,-0.4021100,-0.1686852,-0.3835241,-0.3581392,-0.5801318,0.1056840,-0.1015172,-0.3802408,-0.4662775,-0.4508311,-0.1083254,-0.0845462,-0.2937073,-0.5484028,-0.5620319,-0.3312765,-0.2449071,-0.3499231,-0.2789815,-0.0917884,-0.5148078,-0.1621289,-0.3315987,-0.5102471,-0.3882837,-0.2590955,-0.1349970,-0.4662051,0.0922439,-0.0336167,-0.3825160,-0.5089663,-0.3406166,0.0924311,-0.3017579,-0.1692302,-0.2213546,-0.6831931,0.0377585,-0.8087949,-0.0355778,-0.5257619,-0.4784636,-0.1593323,-0.1282655,-0.2185045,-0.5833895,-0.3642720,-0.5256137,-0.3918937,-0.6969110,-0.0456498,-0.4114760,-0.2324632,-0.3124674,-0.0045495,-0.1742642,-0.0138093,-0.4129560,-0.3382497,-0.2775373,-0.4075383,-0.0225721,-0.5880982,-0.7951163,-0.2328624,-0.0013319,-0.4881577,-0.2735544,-0.4688967,-0.4643288,-0.4215104,-0.7330464,-0.3005062,-0.2517007,-0.1213203,-0.6682951,-0.1587948,-0.2165732,1.5453017,-0.0833464,-0.6256536,0.1010192,-0.1397610,-0.3340381,0.8151041,-0.4833732,0.6226768,-0.2246819,-0.5607979,-0.2898710,-0.3811328,-0.1677154,-0.3835651,-0.5322821,-0.0152576,-0.2812918,-0.3750685,-0.0620686,-0.4197860,-0.3645116,-0.6161911,-0.4830313,-0.3081434,-0.6465635,-0.7997918,-0.3945643,-0.1440462,-0.2760441,-0.1311054,-0.3641686,-0.0539468,0.1526234,-0.0902361,-0.4170115,-0.5153863,-0.5617126,-0.6992074,-0.3637236,-0.1316699,-0.4193884,-0.2049915,0.5892405,-0.1846692,-0.0067600,-0.2814381,-0.1173780,-0.1278669,-0.2276939,-0.2826439,-0.1861844,-0.0591480,-0.6959485,-0.0914491,-0.2632228,-0.4282126,-0.2803193,-0.5724428,-0.2809002,-0.4394209,-0.2412056,-0.4371324,-0.1255870,0.0495860,-0.0128532,-0.5908112,-0.5338855,-0.5586061,-0.4470556,-0.3426104,-0.3477725,-0.4182169,-0.3026880,-0.1584612,-0.2202048,-0.4615549,-0.2301820,-0.3346391,0.0163288,-0.3173993,-0.1683422,-0.4083328,-0.1547728,-0.6592993,-0.2185406,-0.5551097,-0.0446298,0.0715115,-0.1589861,-0.1559315,-0.1677289,-0.6289647,-0.1723092,-0.7318841,-0.2462945,-0.1982212,-0.2048420,-0.6103601,-0.4696112,-0.1490785,-0.4234332,-0.0804341,-0.2852295,-0.3037024,-0.1741507,-0.4810756,-0.1626845,-0.1615202,-0.2449323,-0.2607229,-0.3515230,-0.5751526,0.1295591,-0.1422591,-0.0198459,-0.0620035,-0.3835765,-0.0359727,-0.5862827,0.1372737,-0.1523410,0.0047279,0.0224598,-0.0741842,-0.2917201,-0.3511336,-0.6393967,-0.3475572,-0.0020282,-0.1353754,-0.2108281,-0.1510576,-0.1471246,-0.3630677,-0.1683817,-0.1844856,-0.0665817,-0.1937873,-0.0798943,-0.1566169,-0.5243548,-0.2227442,-0.3411988,1.4323975,-0.3154330,-0.5802229,-0.2259624,0.2037645,0.1209524,-0.0287746,-0.3049800,-1.6972190,-0.3324528,-0.0811867,-0.1252995,-0.3219601,-0.3846641,-0.8602602,-0.5118476,-0.2122701,-0.1256078,-0.3888470,-0.1618151,-0.0880592,-0.1744278,-0.1337702,-0.6215167,0.0005207,-0.2045802,0.0169102,-0.7437947,0.1738397,-0.7309536,-0.6350939,-0.0750930,-0.7474168,-0.2048013,-0.2296721,0.3251567,-0.1666757,-0.2774252,-0.0910741,1.2494556,-0.3542535,-0.4087609,-0.1092215,-0.2689764,-0.3214740,-0.2721947,-0.4206099,-0.4071878,-0.1587804,-0.3042545,-0.3771833,-0.7972101,-0.5335736,-0.3987139,-0.0806384,-0.1051100,-0.1112464,-0.0815282,-0.5976288,-0.1018016,-0.0075651,-0.0828027,-0.0392853,-0.1219564,-0.1644067,-0.1251480,-0.1977892,-0.0357667,-0.2335752,-0.3386496,-0.3800205,-0.7128263,-0.2552078,-0.2784242,-0.4695888,-0.0041568,-0.4593506,-0.3503120,-0.1781533,-0.5761977,-0.0280093,-0.5694366,-0.2492260,-0.4699330,-0.1900916,-0.1895468,-0.1501659,-0.2288072,0.0681732,-0.5714145,-0.1354647,-0.3880840,-0.2085208,-0.4712655,-0.3057449,0.0738075,-0.4637765,-0.4184709,-0.1823215,-0.2533566,0.0062742,0.0095694,-0.0109441,-0.1352922,-0.2593965,-0.1664813,-0.1511107,-0.1735009,0.1541922,-0.6212163,-0.1697161,-0.0339774,-0.3237134,-0.0279388,-0.1137137,-0.0277159,-0.5113682,-0.5418955,-0.2352007,-0.4598416,-0.3040141,0.1006364,-0.2912123,-0.3276273,-0.0460891,-0.3259267,-0.1225551,-0.2749881,-0.1482567,-0.5145543,-0.0767754,-0.6077138,-0.2576679,0.0892199,0.0688395,0.0625672,-0.2497416,-0.0486737,-0.1780815,-0.2893422,-0.6277840,-0.1410456,-0.1628962,-0.1782128,0.8123803,-0.2441168,-0.2662009,-0.2066347,-0.5361553,-0.2817880,-0.3236203,0.0638710,-0.5085366,-0.2827214,-0.3971780,-0.3652113,-0.1223636,-0.1603025,-0.0863551,-0.2305249,-0.2410332,-0.2202886,-0.5188991,-0.1545885,-0.3839775,0.0009300,-0.0908841,-0.0973009,-0.0767933,0.1221212,-0.3246458,-0.0929388,-0.3401540,-0.3031738,-0.1727749,0.0410138,-0.4214073,-0.3001044,-0.3633084,-0.8336059,-0.0183055,-0.7173976,-0.1157910,-0.2276026,-0.2598483,-0.0198626,-0.1710672,-0.3800918,-0.2684094,-0.2216052,-0.2076460,-0.2319286,-0.3635133,-0.6271515,-0.0850378,-0.2730297,-0.1580610,-0.4671170,-0.2767201,0.6446776,-0.4020426,-0.0973820,-0.0324318,-0.2133485,-0.2322025,-0.3773192,-0.1152850,-0.3112203,0.1997298,-0.0213331,0.0480711,-0.1804289,-0.1961819,-0.4024043,-0.2622778,-0.1482148,0.2287741,-0.7219297,-0.1015560,-0.2290930,-0.1901264,-0.1419040,-0.4694516,-0.1668911,-0.1467967,-0.4909659,-0.2438227,-0.1609821,-0.8585542,-0.6083211,-0.2531753,0.7754332,-0.4586348,0.1131837,-0.1391071,-0.4873722,-0.1919004,0.1722666,-0.2281025,-0.2079980,-0.2075479,-0.5806741,-0.2181556,-0.2126384,-0.2169579,-0.2523944,0.1297419,-0.2722601,-0.1970417,-0.0335179,-0.1177041,0.5653247,-0.0951800,0.2437601,-0.0870520,-0.4207353,-0.3591114,-0.2957636,-0.5293480,0.0780691,-0.0781399,-0.5601754,-0.2840351,-0.2383299,-0.6094401,-0.5563393,-0.5780511,0.3174463,0.0918286,-0.0373716,-0.2719637,-0.3263336,-0.1703492,-0.4550887,-0.2946173,-0.4597017,-0.0443582,-0.2514469,-0.3183550,0.9068856,-0.6124334,-0.1429982,-0.4647102,-0.1917470,-0.2815037,-0.4748690,0.6177642,-0.0540362,-1.2556196,-0.6838214,-0.0891411,0.3098398,0.0381282,-0.8047031,-0.1038195,0.5176132,-0.1434669,-0.0974443,-0.6716078,-0.6159790,-0.4813489,-0.1974108,-0.2367829,-0.1544660,-0.0513630,-0.3393458,-0.2984728,-0.0388100,-0.4803622,-0.2568407,-0.1438962,-0.0409062,-0.3317801,-0.2222147,0.9473249,-0.2668507,-0.3922878,-0.5346042,-0.1871562,-0.0248653,0.0107453,-0.1987008,0.0709007,-0.5175806,0.3209292,-0.3967705,0.0376200,-0.0644528,0.2471943,-1.4322811,-0.0781661,-0.0463297,-0.0436911,-0.3918557,-0.3851957,-0.5049654,-0.3017290,0.0177804,-0.1653511,-0.1258169,-0.7257816,0.0588277,-0.2296715,-0.0068662,-0.3430396,-0.6516444,-0.6251125,-0.1769890,-0.4444255,-0.1826769,-0.1491345,-0.3451030,-0.1073955,-0.4488890,-0.0632203,-0.0758676,-0.1694133,-0.2614852,-0.1135169,-0.1511367,-0.2566029,-0.0960602,-0.5702130,-0.3147765,-0.2262402,-0.0801299,-0.4658563,0.0158532,-0.2725923,-0.2322630,0.1778151,-0.0767739,0.1490616,-0.3107451,-0.3104300,-0.2498543,-0.1914303,-0.2253244,-0.1234579,-0.2828140,-0.5061137,-0.1613179,0.0213321,-0.2204397,-0.2181235,0.0598867,-0.3898057,-0.6034858,-0.3478321,-0.2988317,-0.1799201,-0.6850881,-0.1614767,1.2021095,-0.2693104,-0.1742613,-0.3903123,0.0350197,-0.3779446,-0.3597451,-0.4761465,0.3639858,-0.1062928,-0.4442473,-0.5131226,-0.3738026,-0.4169368,-0.4845835,-0.3995510,-0.5009687,-0.4918856,-0.2507977,-0.1981607,-0.2645526,-0.1455667,-0.0651445,-0.5619508,-0.3837953,-0.5543739,-0.4562150,-0.2284931,-0.0987019,-0.5542725,0.6295713,-0.2089157,-0.3792886,-0.5136003,-0.1651531,-0.5965471,-0.3061179,-0.2014436,-0.6573276,-0.2212503,-0.2757666,-0.2707440,-0.1852710,-0.4762589,1.0098016,-0.0802668,-0.2325227,-0.1248792,-0.0166036,-0.2423134,-0.2530569,-0.3803573,-0.5586903,-0.5568970,-0.2145611,-0.2444952,-0.3983029,-0.1804646,-0.4901219,-0.0861919,-0.1058123,-0.2501262,-0.3719183,0.1698126,-0.1187143,-0.1682317,-0.2746764,-0.1743317,-0.5810372,-0.5288660,-0.2761353,-1.0665568,-0.2551876,-0.2017148,-0.2170767,-0.2551072,-0.1684607,-0.0732948,-0.0154123,-0.1405269,-0.1767861,-0.4512251,-0.0276288,-0.2410235,0.2852776,-0.3994923,-0.1663818,-0.3951002,-0.6427934,-0.0126981,-0.4217147,-0.6191866,-0.0320374,-0.2892323,-0.0516393,-0.2919097,-0.2289866,0.0464389,0.2478265,-0.1895993,0.0035082,-0.2139977,-0.2405917,0.0722894,-0.2027787,0.0965986,0.2255520,-0.5012454,-0.2317336,-0.6627851,-0.2250745,-0.4844437,-0.2199824,-0.0656839,-0.3547455,0.0593310,-0.2407174,-0.2444336,-0.5513342,-0.0204194,-0.3583690,-0.3083981,-0.2764192,-0.5139177,-0.5766090,-0.4782360,-0.3203844,-0.0447962,-0.2220295,0.1030537,-0.0954420,-0.2764848,-0.6532092,-0.1830719,-0.4505060,-0.4808773,-0.0111875,-0.5093423,-0.4538112,-0.1651011,-0.1090090,-0.1915329,-0.3314600,-0.2565871,0.1322521,0.5936007,-0.5500106,-0.2275159,-0.2028790,-0.6455702,-0.3916416,-0.2603558,-0.9209191,-0.5270083,-0.3345644,-0.9128969,-0.7155385,-0.6588348,-0.2358806,-0.5553922,-0.0943328,-0.3814641,-0.3018832,-0.1020328,-0.2272289,-0.1308000,-0.5679263,-0.2083598,-0.3069870,-0.2123479,-0.0427021,-0.1711659,-0.1425731,-0.4413958,1.5430695,-0.2760453,-0.0143667,-0.3795628,-0.0632601,-0.2433950,-0.2999135,-0.3821211,-0.5942100,-0.4659576,-0.3072336,-0.1625037,0.1554632,0.0486373,-0.5636142,-0.5362030,-0.2354303,-0.1951999,-0.2412966,-0.0442133,-0.2546514,-0.0555589,-0.3020858,-0.0776713,-0.2070248,-0.4651892,-0.1747801,-0.3574861,-0.1689409,-0.2972298,-0.4170695,-0.2111698,-0.2016778,-0.2134271,-0.1792763,-0.6287991,-0.5746888,-0.1890890,-0.2253760,-0.2205688,-0.2654828,-0.1283255,-0.4295584,-0.1765455,-0.2855717,-0.8247053,0.3874731,-0.4324406,-0.6328717,-0.3770067,0.0176299,-0.6148605,-0.4698864,-0.1779430,-0.5077026,-0.1303121,-0.0399806,-0.2563815,-0.2125147,-0.3940551,-0.6214052,-0.2494374,-0.2500444,-0.1453647,-0.1935999,-0.4353130,-0.4254805,-0.3712789,-0.1767358,-0.4090112,-0.2781726,-0.1411415,-0.1382199,-0.1969285,-0.5987758,-0.2242421,-0.1643502,-0.1878984,-0.1965188,-0.1381204,0.5900927,-0.1311004,0.0196081,-0.1953586,-0.4098096,-0.2133087,-0.2719951,-0.1231157,-0.3879148,-0.8791924,0.0789965,-0.2644687,-0.4220569,-0.1457425,-0.5100846,-0.3574182,-0.0405309,-0.3228928,-0.8558657,0.1953008,-0.0212439,-0.0903398,-0.2337679,-0.0884081,-0.7944922,0.3805511,-0.1301117,-0.3164417,-0.2685985,-0.7737224,-0.1961850,-0.3141244,-0.9411975,-0.2930758,0.0259440,-0.4987945,-0.1868054,-0.2219815,-0.1161231,-0.5635974,-0.5704589,-0.6124074,-0.1294583,-0.2504228,-0.1006575,-0.0605766,-0.1360574,-0.3636495,-0.3498294,-0.2373946,-0.2480946,-0.1935462,-0.1031835,-0.3507691,-0.6781574,-0.3217130,-0.1039718,-0.3366590,-0.0378486,-0.5641820,-0.9323578,-0.4871831,-0.4985084,-0.0613302,-0.3461233,-0.2130218,-0.1553604,-0.4386273,-0.4872014,-0.1627808,-0.3818482,-0.3247336
-0.3019434,-0.5120257,0.1046688,0.0009998,-0.3278144,0.0946428,-0.1523873,0.0005078,0.1023852,0.1710510,-0.1268962,-0.6919376,-0.4026929,-0.4362401,1.6777267,-0.2617495,-0.7066688,0.1461743,0.4134571,0.0582327,-0.1285429,-0.2235432,-0.1203302,0.9736499,0.0994240,-0.4446088,-0.2390465,-0.2914448,-0.1408373,-0.5789544,-0.1137054,-0.7831613,-0.2763627,-0.3069925,-0.5864334,-0.4530323,0.1001433,-0.0571171,-0.3384565,0.0866415,0.1500123,-0.2269278,-0.4663127,-0.0383232,-0.1042360,0.1009805,-0.3104711,-0.5306302,-0.1167774,-0.1074297,0.1128661,-0.1209813,0.0052607,-0.2619798,-0.0679765,-0.1361971,-0.0881725,0.8078690,-0.2361494,-0.5344537,-0.2543468,-0.3372318,0.0033247,0.0968871,0.3099718,-0.1905481,-0.2223019,0.1078974,-0.9856443,-0.1577167,-0.3652071,-0.0435711,-0.3270618,-0.0586188,-0.3007366,-0.1415398,-0.0053024,0.0470780,0.5626659,2.0014820,-0.0187501,-0.2775256,-0.3320957,0.4350081,-0.0354259,-0.1295067,-0.1235214,-0.5419438,-0.3258159,0.2892192,0.1995323,-0.1962458,-0.4259068,-0.3039129,-0.2530557,-0.1423732,-0.7756624,-0.1484429,-0.4994636,-0.7283421,-0.0464715,0.5670727,-0.0901472,-0.3043047,0.1257274,-0.3710488,-0.2212920,-0.0957222,-0.2490311,-0.0954992,-0.0041468,-0.4684294,1.2550397,-0.0174465,-0.5104491,-0.0150632,-0.5127526,0.0789433,0.3694144,0.1020350,-0.2397729,-0.2394097,-0.0148126,-0.3196525,-0.1617895,-0.3906243,-0.4512917,-0.4917195,-0.1404476,-0.1043944,-0.5740575,-0.0921859,-0.2376975,-0.1191489,0.0218341,0.1207160,0.0437024,-0.1708388,-0.7894242,-0.3201311,-0.7372054,0.0904054,0.0405397,-0.3531807,-0.3490441,-0.4918082,-0.0566477,0.0762065,0.4350477,-0.5409544,-0.4746242,-1.0642768,-0.1539060,-0.3095567,0.1425705,-0.2083618,0.1530269,-0.1948925,-0.1392906,-0.3149611,-0.0892179,-0.1081094,0.0920911,0.0213835,-0.2601363,0.0394413,0.0615679,-0.0230037,-0.2089237,-0.5199235,-0.3348702,-0.3408112,0.9562502,-0.5130435,0.0772681,0.1454832,0.5549734,-0.0840787,-0.2900016,0.0671048,0.1627821,-0.7140647,0.9279928,-0.6201189,0.1042189,-0.1373412,-0.0758691,0.1226749,-0.2266465,-0.0925130,-0.8850356,-0.4497984,0.3410608,0.5553244,0.2229226,0.2777967,0.2738750,0.1919220,-0.5517954,-0.5564442,-0.0718734,0.6375977,0.0169276,0.1590726,-0.0402410,-0.3899903,-0.0039876,0.1314981,-0.3403535,-0.0648110,-0.0163830,-0.0094167,-0.0019854,0.3714369,-0.1916630,-0.2387670,0.0325312,-0.1567664,-0.7249184,0.0201208,0.2048796,-0.3080289,-0.0528179,0.0307712,-0.0696514,-0.0809058,-0.3221448,-0.1193692,-0.1857517,-0.6314518,-0.1183036,0.0467617,-0.2051097,-0.7013357,0.4007349,-0.2655142,-0.0320540,0.0223874,0.0392841,-0.0598702,-0.2115321,0.1515366,-0.1289385,-0.5146694,0.0765322,-0.6339837,0.5965608,0.4598275,0.2482405,-0.2476176,-0.6600335,-0.3557507,-0.0789889,-0.2154658,-0.0030133,-0.0540838,-0.0111934,-0.2002358,-0.0008917,-0.0995655,-0.1159943,-0.4756216,-1.0223430,-0.4165886,0.0407784,-0.2058095,-0.3023549,0.1124950,0.0076813,-0.1025761,-0.5495694,-0.4259880,-0.3448871,-0.6537947,-0.3526625,-0.0549312,0.3027850,-0.1970748,0.0270719,0.1037016,-0.4219824,-0.0894888,-0.0749621,1.3388519,-0.2845327,0.2593894,0.0681374,-0.3133547,0.6828433,0.7900502,-0.0090199,-0.1043892,-0.3813580,-0.1225076,-0.4491917,0.2456128,-0.0269568,-0.1986344,-0.1907537,-0.6074262,-0.4230628,-0.1584396,0.0299639,-0.0986035,-0.3977509,0.0779762,-0.6157912,-0.5404655,0.2465675,-0.1844738,-0.2084443,-0.0321980,-0.5110187,0.0112691,0.0619841,-0.1223540,-0.2653980,-0.1271656,-0.8597363,0.0385423,-0.3422149,-1.2872626,-0.1134339,0.6871988,0.0491726,0.1995100,-0.0407382,-0.5250921,0.7587464,-0.3511356,0.0486724,-0.0806786,-0.4097538,-0.1925025,1.3400648,-0.7295273,-0.3589044,-0.7377288,-0.2145859,-0.3248261,-0.4271712,-0.0003353,-0.4289064,0.0441817,-0.4128135,-0.0813168,-0.5831197,-0.0343082,-0.4940963,0.1609691,-0.3140171,-0.1607240,0.9917707,-0.0864877,-0.4446870,-0.0275028,-0.4693496,-0.1071896,-0.1761125,0.1462363,-0.2639502,-0.0402682,-0.3540001,-0.6912061,0.0074787,0.1377674,0.0285778,-0.2252346,-0.2635689,-0.0115757,-0.0831133,0.2618668,-0.4564379,0.1549261,0.1374675,-0.1941921,-0.1204167,0.0723276,-0.5201747,-0.3262657,-0.0924697,-0.0888054,0.5421013,-0.3775433,-0.0270714,-0.1850427,0.1403758,0.0194090,-0.2919126,-0.5993863,-0.4557882,0.0566266,-0.2652352,-0.4206530,-0.0687660,-0.3727081,0.1271921,-0.6396847,0.0132684,0.1042119,-0.0999616,0.1231214,-0.3102967,-0.0608382,-0.0492408,1.1793902,-0.0405280,-0.2931930,0.0260065,0.1292159,-0.4251743,-0.6038445,-0.3416227,-0.0400209,-0.1550744,-0.2965265,-0.1586406,-0.2163173,0.1136973,-0.7021105,-0.8576257,-0.4575742,1.5466965,-0.0277021,-0.1172926,-0.4487373,-0.4245414,-0.0312437,0.0221470,-1.2051656,0.1642450,-0.1691601,-0.2271534,0.3741038,-0.2136623,-0.0501119,0.0312104,0.1736719,-0.2229572,0.4338116,2.2250180,-0.0012659,-0.1052003,0.1002801,-0.8343095,0.1515081,0.0426443,-0.1213625,-0.5344582,0.0034529,-0.8452881,-0.6494722,-0.2415842,-0.1250311,-0.3326820,-0.7173885,-0.1111090,-0.0912117,-0.5652656,0.0931571,-0.3162700,2.1983078,1.2089375,-0.1311629,0.1639142,-0.1199851,-0.3734950,-0.1344107,0.2654899,0.1686307,-0.1121654,-0.3006975,0.2742553,-0.2601882,-0.3456552,-0.2976652,-0.7530667,0.4839906,0.0784924,-0.4507377,-0.5699741,-0.4004119,-0.1148176,0.0528599,-0.3334188,-0.0173543,0.1158223,-0.2964214,0.0132832,-0.5055423,1.3269004,-0.3491772,0.1111545,-0.1902162,-0.2028075,0.8557479,-0.1685594,0.0806735,-0.0819873,-0.5109405,-0.0869753,-0.0218413,-0.1194481,0.0552095,-0.3514748,-0.3061471,0.0802601,-0.2013703,-0.4335211,-0.2932337,-0.1798354,0.0346166,-0.3663565,0.1570716,-0.1115447,-0.4435642,0.1293343,-0.4644608,0.1815227,0.1314417,-0.1911793,-0.2986618,-0.4957555,-0.6118433,-0.7193891,0.0058169,-0.3275723,-0.2894294,-0.2231479,-0.5330616,-0.0208638,0.0641440,-0.3202133,-0.0281740,-0.3120283,-0.2365820,-0.5297834,0.3204950,0.0585140,-0.3078330,-0.4039260,-0.4113174,0.0446404,0.1057421,-0.1822764,-0.5258324,-0.4974110,-0.2297700,-0.1425624,-0.2933895,-0.1373637,0.1066013,-0.4575112,0.0239915,-0.2250156,-0.4580017,-0.3650418,-0.1306103,0.0168328,-0.3926835,0.4289850,0.0937074,-0.2977219,-0.4489717,-0.2201800,0.3784407,-0.2100507,0.0240411,-0.0936666,-0.6423504,0.2331700,-0.7740403,0.1742808,-0.4711575,-0.4125727,-0.0051029,0.0497417,-0.0738378,-0.5177495,-0.2815249,-0.4751599,-0.3091190,-0.6583607,0.1244072,-0.3359904,-0.1489539,-0.2060917,0.1684591,-0.0284135,0.2356231,-0.2798909,-0.2476173,-0.2236576,-0.3457955,0.1742100,-0.5465966,-0.7630780,-0.0956454,0.2842472,-0.4417105,-0.0882716,-0.4050117,-0.4044857,-0.3510736,-0.6967601,-0.1950561,-0.1172709,0.0689743,-0.6261253,-0.0230426,-0.0980138,2.4628010,0.0991624,-0.5818897,0.4209124,-0.0682285,-0.2803136,1.5957233,-0.4336240,1.2011350,-0.1120711,-0.5090833,-0.2259479,-0.2922187,-0.0395928,-0.3139998,-0.4693679,0.1262243,-0.1650379,-0.2985276,0.1206981,-0.3916657,-0.2845357,-0.5691989,-0.4222310,-0.2158135,-0.6053434,-0.7775701,-0.3216587,-0.0529860,-0.2056225,0.0158015,-0.3088651,0.1474284,0.3765229,0.0606965,-0.3450519,-0.4656077,-0.5036091,-0.6617612,-0.2951398,0.0124951,-0.3478523,-0.0840916,0.9839221,-0.0411981,0.2330410,-0.1554355,0.0623763,0.0560567,-0.0721647,-0.1932554,-0.0733885,0.1160137,-0.6662709,0.0662723,-0.1902650,-0.3413206,-0.1585781,-0.5205728,-0.1624638,-0.3702537,-0.1312345,-0.3744586,-0.0273242,0.2357140,0.0969496,-0.5469103,-0.4773862,-0.4318348,-0.3745013,-0.2467947,-0.2486599,-0.3750204,-0.1768416,0.0242838,-0.0801587,-0.4009911,-0.1620498,-0.2369049,0.2750324,-0.2117018,-0.0754709,-0.3168577,0.0043500,-0.6098087,-0.0505459,-0.5037479,0.1468215,0.3510809,-0.0251074,-0.0212337,-0.0063566,-0.6031995,-0.1212359,-0.6941015,-0.1412041,-0.0558711,-0.1330719,-0.5648191,-0.4078080,-0.0006823,-0.3938694,0.0729326,-0.2135701,-0.2157351,-0.0304663,-0.4146404,-0.0163301,-0.0123164,-0.0751980,-0.1453361,-0.2644247,-0.5492551,0.3573778,-0.0024978,0.1748369,0.0868374,-0.2985016,0.1900341,-0.5331676,0.4014244,-0.0155917,0.2011415,0.2277216,0.1371904,-0.1969732,-0.2619610,-0.5960791,-0.2512891,0.1789164,0.0108705,-0.0786271,0.0015602,-0.0496207,-0.2700230,-0.0418737,-0.0651262,0.1256285,-0.0386134,0.1067062,-0.0255686,-0.4691672,-0.0863520,-0.2568913,2.3657849,-0.2179681,-0.5285163,-0.0830540,0.4943969,0.3306265,0.1936633,-0.2101020,-1.6753771,-0.2423377,0.1039789,0.0373700,-0.2518582,-0.3066456,-0.8305794,-0.4505679,-0.0499653,0.0091219,-0.3164890,-0.0325075,0.0552893,-0.0489750,0.0024561,-0.5767674,0.2422175,-0.0447966,0.2007944,-0.7136450,0.4257163,-0.6774802,-0.5902557,0.0589899,-0.7124071,-0.0151782,-0.1015145,0.7660026,-0.0439862,-0.1740363,0.0723272,2.0530400,-0.2717333,-0.3312694,0.0477810,-0.1376144,-0.2159711,-0.1171858,-0.3476318,-0.3316299,0.0069049,-0.1409874,-0.2902947,-0.7640696,-0.4776704,-0.3292307,0.0774439,-0.0200003,0.0466637,0.0126228,-0.5497152,0.0184588,0.1576292,0.0771103,0.1939653,0.0449618,-0.0049178,0.0092244,-0.0441183,0.0426881,-0.0230284,-0.2507686,-0.3041211,-0.6753391,-0.0621335,-0.1539874,-0.3940430,0.2574767,-0.3945054,-0.2330496,-0.0424454,-0.5276539,0.1665602,-0.5208096,-0.1203928,-0.4045760,-0.0964272,-0.0534298,-0.0068384,-0.1051043,0.3618758,-0.5211644,-0.0052062,-0.3009206,-0.0718130,-0.3827072,-0.2204376,0.2901254,-0.4057190,-0.3503750,-0.0521348,0.0024859,0.2446362,0.1939321,0.1787307,-0.0717661,-0.0601499,-0.0229513,-0.0107001,-0.0231933,0.3735518,-0.5779794,-0.0188116,0.1768540,-0.1904150,0.1434413,0.0241789,0.1451454,-0.4533294,-0.5137078,-0.1056484,-0.3963904,-0.2037701,0.3337490,-0.1858727,-0.1998803,0.1160386,-0.2689600,0.0383639,-0.1729574,0.0451102,-0.4575927,0.0966927,-0.5629777,-0.1633791,0.2974710,0.2732037,0.2913044,-0.1076302,0.1165850,-0.0585458,-0.2187998,-0.5790294,-0.0002183,-0.0064480,-0.0440216,1.2224779,-0.1208130,-0.1029707,-0.0867090,-0.4848993,-0.1603262,-0.2153042,0.2773514,-0.4550237,-0.1582304,-0.3092459,-0.2895679,0.0341702,-0.0344847,0.1178175,-0.0985061,-0.1281101,-0.1795703,-0.4556345,-0.0216385,-0.2996159,0.1922025,0.0570894,0.0495527,0.0756899,0.3605821,-0.2415209,0.0663051,-0.2605404,-0.2041692,-0.0395793,0.1571237,-0.3738312,-0.2276917,-0.2821075,-0.8020495,0.1058048,-0.6791298,0.0355957,-0.1162202,-0.1715196,0.1805912,-0.0118388,-0.3009292,-0.1453557,-0.0929608,-0.0982404,-0.1109770,-0.2765410,-0.5989201,0.0542045,-0.1752520,-0.0180762,-0.4025013,-0.1691752,1.0200678,-0.3209215,0.0653724,0.1400429,-0.0877198,-0.1110304,-0.2906951,0.0525357,-0.2501261,0.4662313,0.1699300,0.2533373,-0.0275167,-0.0625442,-0.2961373,-0.1675416,0.0407011,0.4886427,-0.6750639,0.0650207,-0.1184349,-0.0295516,0.0353637,-0.4192278,-0.0887814,-0.0044883,-0.4199478,-0.1099556,0.0110291,-0.8299100,-0.5585343,-0.1435848,1.2890292,-0.4114365,0.3474475,-0.0006438,-0.4239061,-0.0536525,0.4233193,-0.1551553,-0.0465718,-0.0919899,-0.5361022,-0.0990162,-0.1467993,-0.1109905,-0.1947353,0.3617357,-0.1303577,-0.0690228,0.0492556,-0.0442746,1.0107274,0.0619965,0.5727192,0.0687699,-0.3455343,-0.2805735,-0.2189716,-0.4677868,0.2934687,0.0749093,-0.5122846,-0.1919405,-0.1421905,-0.5627325,-0.5040894,-0.5205818,0.7584700,0.3287857,0.1461228,-0.1131949,-0.2256311,-0.0257635,-0.3893530,-0.1935252,-0.3801237,0.1187727,-0.1193188,-0.2183347,1.6473659,-0.5749803,0.0362642,-0.3992410,-0.1018826,-0.2109576,-0.4115722,1.0365599,0.0874473,-1.2283595,-0.6311686,0.0894435,0.7852635,0.2377042,-0.7788227,0.0590869,1.0668312,-0.0075123,0.0421184,-0.6322888,-0.5663501,-0.3905202,0.0306808,-0.0958337,0.0926254,0.1098046,-0.2542639,-0.2061212,0.1458605,-0.4193811,-0.1449516,0.0090687,0.1436723,-0.2443229,-0.1069094,1.5134463,-0.1602395,-0.3195397,-0.5032733,-0.0522023,0.1740536,0.1833496,-0.0536413,0.3056133,-0.4830794,0.6691613,-0.3279672,0.2372058,0.1180397,0.5173475,-1.4112558,0.1119526,0.1378708,0.1282701,-0.3165451,-0.3079736,-0.4460208,-0.1957578,0.2082835,-0.0163708,0.0231275,-0.6878103,0.3523408,-0.1047937,0.1977951,-0.2537744,-0.6238123,-0.5777135,-0.0511949,-0.3709732,-0.0451241,-0.0067619,-0.2366819,0.0443664,-0.4079362,0.1053485,0.1549881,-0.0235525,-0.2017820,-0.0183960,-0.0180233,-0.1457376,0.0596378,-0.5206856,-0.2221115,-0.0941433,0.0774498,-0.4017110,0.2089752,-0.1552385,-0.0891338,0.4372931,0.1394639,0.4933007,-0.2136188,-0.1484855,-0.1361521,-0.0483948,-0.0960676,0.0217467,-0.1996420,-0.4499622,0.0002540,0.2266916,-0.1182180,-0.1037201,0.4798073,-0.2895166,-0.5554758,-0.2627670,-0.2130971,-0.0304379,-0.6521958,-0.0104203,1.5379699,-0.1541482,-0.0392489,-0.2814272,0.3054209,-0.2511992,-0.2777935,-0.4192221,0.8015883,0.0599384,-0.3986801,-0.4570062,-0.2998875,-0.3524650,-0.4224262,-0.3286620,-0.4427074,-0.4408689,-0.1152831,-0.0622500,-0.1329325,-0.0022706,0.2038851,-0.5037041,-0.3127061,-0.5019551,-0.3837827,-0.1049438,0.0999951,-0.5074924,1.0421078,-0.0791434,-0.3054039,-0.4588218,0.0160951,-0.5523003,-0.2107733,-0.0450543,-0.5985470,-0.0477292,-0.1754803,-0.1529833,-0.0564832,-0.4128952,1.8731111,0.1079929,-0.0892617,0.0251398,0.1984333,-0.1264430,-0.1288489,-0.3054115,-0.5069286,-0.4905236,-0.0805935,-0.1099387,-0.3478083,-0.0102600,-0.4083731,0.0889932,0.0674702,-0.1234863,-0.2768678,0.4036882,0.0488521,-0.0390011,-0.1082516,-0.0763524,-0.5320207,-0.4754227,-0.1730960,-1.0409425,-0.1097125,0.0211883,-0.0863053,-0.1911475,-0.0479086,0.1041952,0.2043440,0.0023938,-0.0331501,-0.3886685,0.1485244,-0.1073520,0.6953479,-0.3219495,-0.0303994,-0.3140882,-0.5988761,0.1811853,-0.3470202,-0.5750291,0.1388628,-0.1721721,0.1464699,-0.1927574,-0.0865568,0.2561265,0.6092532,-0.0654753,0.1854745,-0.1029233,-0.1198427,0.2913083,-0.0476774,0.3790937,0.5929502,-0.4375824,-0.1200453,-0.6194605,-0.0333902,-0.4346344,-0.1055458,0.0664429,-0.2478756,0.2834187,-0.0998496,-0.1639046,-0.5081204,0.1941806,-0.2766705,-0.1964797,-0.1720222,-0.4707358,-0.5275013,-0.4108691,-0.2391830,0.1270898,-0.0899388,0.3186682,0.0846636,-0.1670303,-0.6112271,-0.0582742,-0.3829958,-0.4168057,0.1661402,-0.4550745,-0.3891102,-0.0225929,0.0308776,-0.0479181,-0.2410680,-0.1564253,0.3667845,1.0543945,-0.4969622,-0.0848185,-0.0503883,-0.6018370,-0.3180594,-0.1152016,-0.8926375,-0.4739695,-0.2431149,-0.8853388,-0.6785871,-0.6065105,-0.1370093,-0.5255266,0.0123846,-0.2998169,-0.2037710,0.0554474,-0.1143950,-0.0256009,-0.5173172,-0.0773359,-0.2039250,-0.0631000,0.0343809,0.0321010,-0.0120548,-0.3846785,2.3066092,-0.1541759,0.1482411,-0.2337262,-0.0242551,-0.1361105,-0.1951661,-0.3071402,-0.5452474,-0.3976565,-0.2406694,-0.0048719,0.4552613,0.2628005,-0.5100607,-0.4714380,-0.1993396,-0.0353978,-0.1250896,0.1845573,-0.1371089,0.1595782,-0.1887481,0.0905827,-0.0666417,-0.4074135,-0.0102767,-0.2605548,-0.0423042,-0.1783525,-0.3440766,-0.0967322,-0.0811481,-0.1132488,-0.0950303,-0.5811381,-0.5228356,-0.0755451,-0.1024833,-0.1536836,-0.1581637,-0.0585587,-0.3675520,-0.0500902,-0.2206163,-0.7920419,0.7774240,-0.3653579,-0.6226190,-0.3254700,0.2077039,-0.5671717,-0.4068295,-0.0248693,-0.4328682,-0.0349121,0.1935362,-0.1265964,-0.0964055,-0.3183251,-0.5732039,-0.0672117,-0.1148010,0.0123886,-0.0093327,-0.3946001,-0.3264893,-0.2967387,-0.0320558,-0.3394218,-0.1575026,0.0200270,0.0257674,-0.0470286,-0.5542759,-0.0939806,-0.0768451,-0.0139255,-0.0724956,0.0668251,1.1537122,0.0223185,0.1677990,-0.0429362,-0.3380306,-0.1031353,-0.1533404,0.0208941,-0.3160250,-0.8470334,0.3893974,-0.1445310,-0.3712985,0.0023034,-0.4534240,-0.2439503,0.1840670,-0.2327778,-0.8250480,0.5193076,0.0837240,0.0772971,-0.1360351,0.0927865,-0.7593330,1.0804164,0.0565979,-0.2333637,-0.1601455,-0.7379062,-0.0474203,-0.2350563,-0.9116279,-0.1665583,0.2550442,-0.4733481,-0.0680817,-0.0924088,0.0629112,-0.5182928,-0.5257009,-0.5702283,0.0104445,-0.1342477,0.0640122,0.1198889,-0.0594126,-0.2654915,-0.2630846,-0.1118550,-0.1342663,-0.0335793,0.1931841,-0.2583897,-0.6387700,-0.2226806,0.0625723,-0.2892503,0.1249679,-0.5115977,-0.9116402,-0.4247372,-0.4396690,0.1052104,-0.2645319,-0.1016710,-0.0254403,-0.4056391,-0.4303487,-0.0005051,-0.3238674,-0.2461658
-0.2257732,-0.4851519,0.3118076,0.1383596,-0.2487910,0.2637933,-0.0273406,0.1412881,0.2742078,0.3378323,-0.0245721,-0.6566727,-0.3371638,-0.3778190,2.3553715,-0.1671117,-0.6607811,0.3461304,0.6997911,0.1159699,-0.0440952,-0.1152367,0.0019160,1.4035759,0.2779762,-0.3840611,-0.1564590,-0.2155810,-0.0100452,-0.5447974,-0.0252868,-0.7402498,-0.1886834,-0.2240429,-0.5402546,-0.4058504,0.2532697,0.0821478,-0.2632294,0.2616385,0.3232432,-0.1227721,-0.4113731,0.0936923,0.0106593,0.2722839,-0.2378474,-0.4793165,-0.0090134,0.0012289,0.2798130,-0.0172930,0.0884113,-0.1307445,0.1175642,-0.0280163,0.0368926,1.2233665,-0.1832562,-0.4853972,-0.1640846,-0.2616464,0.1433816,0.1541381,0.6318626,-0.0845381,-0.1330882,0.2767002,-0.9706740,-0.0509015,-0.2983958,0.0727549,-0.2667687,0.0666606,-0.2332343,-0.0409125,0.1141972,0.2199038,0.8740384,2.7956023,0.1824469,-0.1879106,-0.2524316,0.7010493,0.1254340,-0.0114949,-0.0109931,-0.4912832,-0.2504567,0.5465416,0.5319178,-0.0885010,-0.3584659,-0.2252924,-0.1581696,-0.0458194,-0.7521950,-0.0416724,-0.4498338,-0.6575760,0.0865498,0.7801417,0.0309758,-0.2494712,0.2629287,-0.2999321,-0.1175156,0.0998506,-0.1480163,0.0316326,0.1582464,-0.4108545,1.7938613,0.0912572,-0.4616265,0.0717903,-0.4620560,0.2378899,0.6210316,0.3008195,-0.1034307,-0.1649980,0.1303044,-0.2468748,-0.0160441,-0.3250271,-0.3922042,-0.4313590,-0.0375215,0.0379373,-0.5293579,0.0214014,-0.1198295,0.0279616,0.1730752,0.4019358,0.2254318,-0.0957075,-0.7548042,-0.2411118,-0.7048162,0.2660270,0.1999466,-0.2788051,-0.2789817,-0.4357757,0.0651563,0.2759818,0.6790318,-0.4924449,-0.4015597,-1.0391141,-0.0449727,-0.2418405,0.2806875,-0.0717932,0.3322016,-0.0844187,-0.0098052,-0.2286060,0.0426418,0.0059330,0.2154281,0.1837576,-0.1730225,0.1271854,0.2184563,0.1689219,-0.1689478,-0.4712401,-0.2545957,-0.2655950,1.4156104,-0.4631169,0.2214420,0.2260779,0.8874486,0.0341998,-0.2254277,0.3253709,0.3467312,-0.6779966,1.3127288,-0.5761119,0.2205806,-0.0525670,0.0484110,0.2919680,-0.1018576,0.0544965,-0.8560001,-0.3887168,0.5987434,0.8444881,0.4249742,0.5871739,0.4704716,0.3577709,-0.5041015,-0.5095264,0.0585136,0.7287621,0.1635524,0.3441177,0.0113544,-0.3164002,0.0847871,0.3123550,-0.2615392,0.0725630,0.1711006,0.1413785,0.1368912,0.6049758,-0.0858885,-0.1508012,0.2109794,-0.0743368,-0.6895424,0.2106690,0.4426243,-0.2337451,0.0902960,0.1924456,0.0530913,0.0843600,-0.2295061,-0.0063113,-0.0873261,-0.5817884,-0.0623003,0.1295568,-0.1124828,-0.6642271,0.7341676,-0.1427732,0.1263410,0.1020050,0.1597142,0.0763527,-0.1658048,0.3331932,-0.0011254,-0.4627439,0.2440615,-0.5929470,0.8982615,0.5904285,0.4522021,-0.1561465,-0.6386154,-0.3076300,0.0496960,-0.1354189,0.1717378,0.0735838,0.1352549,-0.0918996,0.1363887,0.0327948,0.0724986,-0.4237182,-0.9966394,-0.3562079,0.2011916,-0.1037627,-0.2114023,0.2762752,0.1744146,0.0387287,-0.4976773,-0.3598792,-0.2751687,-0.6329894,-0.2792945,0.0693624,0.5268061,-0.0526476,0.2340107,0.2871923,-0.3593502,0.0267180,0.0479595,1.9467900,-0.1977960,0.4933378,0.2511607,-0.2408877,1.0794303,0.9851207,0.1255332,0.0222140,-0.3231693,-0.0038814,-0.3928844,0.4465369,0.1105720,-0.0877735,-0.0800124,-0.5619354,-0.3593984,-0.0406831,0.1755860,0.0255095,-0.3297642,0.2092027,-0.5759583,-0.4809287,0.4502724,-0.0809356,-0.1169055,0.1122200,-0.4579708,0.1463680,0.2293559,-0.0589242,-0.2285184,-0.0396500,-0.8295538,0.1983598,-0.2719043,-1.2659966,0.0127593,1.0689451,0.1968498,0.4295571,0.1096861,-0.4754115,1.0987724,-0.2828045,0.2151647,0.0489969,-0.3456841,-0.0862712,1.7676721,-0.7034940,-0.2927644,-0.7023910,-0.1234046,-0.2468538,-0.3676077,0.1569051,-0.3632617,0.2240514,-0.3516798,0.0295994,-0.5374950,0.1069994,-0.4389271,0.4302534,-0.2354935,-0.1011637,1.3052145,0.0476689,-0.3889691,0.1142660,-0.4273488,-0.0622307,-0.0687053,0.3159041,-0.1889221,0.0877025,-0.2842672,-0.6568479,0.1562536,0.3702672,0.1275314,-0.1399020,-0.1517337,0.1392344,0.0279089,0.4792475,-0.3955947,0.3589120,0.3445990,-0.0523123,0.0193446,0.2267767,-0.4704031,-0.2431664,0.0357182,0.0360281,0.8231962,-0.3122641,0.1007126,-0.0711225,0.3504170,0.2502167,-0.1824967,-0.5566270,-0.3685236,0.2481932,-0.1749409,-0.3590486,0.0650336,-0.3090185,0.2708094,-0.5979307,0.1885089,0.2825699,0.0313457,0.3697448,-0.2383874,0.0497922,0.1037595,1.7532018,0.0889737,-0.2017960,0.1666031,0.2945006,-0.3601762,-0.5605818,-0.2951995,0.0880455,-0.0475715,-0.2137162,-0.0612128,-0.1138636,0.3199589,-0.6808406,-0.8280655,-0.4063649,2.2958045,0.1468072,-0.0032999,-0.3889775,-0.3632966,0.1099449,0.1839047,-1.1817949,0.3144674,-0.0690474,-0.1341541,0.7089475,-0.1092214,0.1054216,0.2097035,0.3339988,-0.1439013,0.6983283,2.9414864,0.2537467,0.0183164,0.2902968,-0.8035359,0.2946849,0.1516840,-0.0273332,-0.4812267,0.2157008,-0.8178407,-0.6028847,-0.1354740,-0.0589435,-0.2665863,-0.6930217,-0.0046273,0.0204226,-0.5153849,0.2776304,-0.2784691,2.7281365,1.7357752,-0.0012181,0.3488141,-0.0144179,-0.3016730,-0.0610870,0.4768396,0.3469259,0.0049223,-0.2240959,0.4826942,-0.2043844,-0.2710832,-0.2256965,-0.7151540,0.6470704,0.2369376,-0.3948498,-0.5224558,-0.3332376,-0.0200778,0.1389377,-0.2563930,0.0710452,0.2694632,-0.2596996,0.1915599,-0.4508182,1.6945363,-0.2809457,0.2248743,-0.0983360,-0.0936371,1.3469164,-0.0310111,0.2121324,0.0505572,-0.3972460,0.0415630,0.1163811,0.0007619,0.2364280,-0.2755943,-0.2150452,0.2446723,-0.0938904,-0.3725297,-0.2183550,-0.0682736,0.1802607,-0.3006611,0.3811854,0.0143758,-0.3863592,0.3033954,-0.4098920,0.3554309,0.3486130,-0.1080240,-0.2082520,-0.4436444,-0.5576773,-0.6798453,0.1500097,-0.2536888,-0.2085575,-0.1475275,-0.4878693,0.0582101,0.2030365,-0.2391925,0.1117989,-0.2409657,-0.1118734,-0.4823966,0.5329962,0.2134486,-0.2363191,-0.3330607,-0.3718036,0.1986293,0.2988963,-0.1204228,-0.4719141,-0.4417436,-0.1287087,-0.0392613,-0.2373391,-0.0159084,0.1930788,-0.4004163,0.1846086,-0.1174894,-0.4051581,-0.2917404,0.0069801,0.1742039,-0.3224478,0.7712238,0.2427853,-0.2064409,-0.3896176,-0.1015906,0.6465347,-0.1183436,0.1775991,0.0350113,-0.6181396,0.4262271,-0.7400174,0.4027659,-0.4165530,-0.3462775,0.1491266,0.2300021,0.0662725,-0.4595948,-0.1987778,-0.4129065,-0.2282043,-0.6163753,0.2928239,-0.2613774,0.0103325,-0.0997161,0.3264236,0.0852776,0.3708030,-0.1869634,-0.1574270,-0.0955751,-0.2832744,0.3704132,-0.4949951,-0.7314038,0.0089251,0.4188044,-0.3726510,0.0001589,-0.3411268,-0.3442121,-0.2814754,-0.6600856,-0.0896061,0.0135534,0.2580796,-0.6051301,0.0825991,0.0235986,3.3662922,0.2730573,-0.5442610,0.7408055,0.1023049,-0.1518046,2.2474115,-0.3716415,1.7692943,0.0444139,-0.4581523,-0.0798379,-0.2047236,0.0914865,-0.2428463,-0.4117646,0.4494261,-0.0492895,-0.2237463,0.3054353,-0.3550647,-0.2050091,-0.5222067,-0.3616340,-0.1234835,-0.5629783,-0.7675346,-0.2487530,0.1439317,-0.1089569,0.1593348,-0.1821459,0.3447529,0.6055304,0.2127472,-0.2726563,-0.4028012,-0.4457139,-0.6235950,-0.1756859,0.1556413,-0.2324600,0.0368084,1.3905121,0.0495487,0.4734507,-0.0902159,0.1373147,0.2249131,0.0790592,-0.0730641,0.0465205,0.2871814,-0.6160324,0.2218478,-0.1588654,-0.2741768,-0.0403294,-0.4687029,-0.0440274,-0.3018846,-0.0179165,-0.3117847,0.1753428,0.5072421,0.2077786,-0.5026243,-0.3878627,-0.3799648,-0.3019470,-0.1581652,-0.1605969,-0.2791782,-0.0806624,0.1804848,0.0578355,-0.3408393,0.0439070,-0.1373438,0.5406656,-0.1060043,0.0409580,-0.2121890,0.1571079,-0.5948859,0.1140086,-0.4507293,0.3364946,0.6271114,0.1129067,0.1170493,0.1555465,-0.5370028,0.0507455,-0.6557463,-0.0385577,0.0848735,-0.0938783,-0.5192780,-0.3466148,0.1369680,-0.3149661,0.1788549,-0.0756876,-0.0903453,0.1142864,-0.3479976,0.1274293,0.1347560,0.0109911,-0.0245251,-0.1773264,-0.4945172,0.5814719,0.1324068,0.3514225,0.2146464,-0.2108090,0.4160409,-0.4818100,0.6681712,0.1201520,0.3351843,0.4324164,0.3227302,-0.1427623,-0.1311355,-0.5525779,-0.1419993,0.3544864,0.1610691,0.0540863,0.1303159,0.1250738,-0.1945339,0.1176364,0.0597732,0.3196294,0.1203060,0.2945029,0.1062077,-0.4131739,0.0480120,-0.1771299,3.3178401,-0.1216076,-0.4781911,0.0659858,0.8529801,0.5520177,0.4154934,-0.1204064,-1.6520653,-0.1522225,0.2855373,0.2011387,-0.1770829,-0.2259675,-0.8008987,-0.3892882,0.1131849,0.1433413,-0.2428311,0.0621457,0.1991571,0.0785862,0.1392165,-0.5318184,0.4887846,0.1211325,0.3852679,-0.6836837,0.6743302,-0.6403142,-0.5454175,0.2042908,-0.6777660,0.1369428,0.0207643,1.2159516,0.0887188,-0.0863403,0.2339715,3.0480602,-0.1896616,-0.2749504,0.2013915,-0.0630315,-0.1112585,0.0068213,-0.2742269,-0.2554092,0.1725901,-0.0343958,-0.2040289,-0.7307439,-0.4213790,-0.2593158,0.2371558,0.1344580,0.2387317,0.1021810,-0.5153770,0.2120781,0.2779695,0.1661341,0.4348887,0.2080366,0.1556786,0.1425087,0.1063732,0.1845516,0.0835501,-0.1620000,-0.2304344,-0.6380330,0.0718150,-0.0290739,-0.3182783,0.4848650,-0.3291869,-0.0783536,0.0687196,-0.4791101,0.3611298,-0.4721826,-0.0048520,-0.3392191,0.0048727,0.0838556,0.1452754,0.0196166,0.5002180,-0.4707217,0.1594495,-0.2135387,0.0638433,-0.3346507,-0.1391144,0.5034637,-0.3476614,-0.2833057,0.0812016,0.1115737,0.4911958,0.3804638,0.3684053,0.1654370,0.0887715,0.1190783,0.1286855,0.1281063,0.5935060,-0.5351287,0.1315520,0.3939534,-0.0962671,0.3123466,0.1525444,0.3185754,-0.3952906,-0.4511788,0.0291068,-0.3325326,-0.1020871,0.5674898,-0.0805332,-0.0730832,0.2787352,-0.1631649,0.1449256,-0.0709268,0.2025827,-0.3832771,0.2680452,-0.5186981,-0.0704700,0.5324365,0.3968404,0.5099872,0.0339469,0.2770709,0.0628650,-0.1032738,-0.5305048,0.1386439,0.1610958,0.0913859,1.6871380,0.0044249,0.0581600,0.0351053,-0.4334422,-0.0505715,-0.1092636,0.5286058,-0.4008922,-0.0827024,-0.2198172,-0.2143568,0.1881124,0.0913332,0.3197768,-0.0083470,-0.0156635,0.0616074,-0.4011790,0.1138390,-0.2139630,0.3874717,0.2050629,0.1943159,0.2238008,0.6026837,-0.1510072,0.2039374,-0.1768323,-0.1066800,0.0925878,0.3838144,-0.3244598,-0.0630735,-0.2009066,-0.7710279,0.2293913,-0.6404735,0.1237019,-0.0048379,-0.0670867,0.3787344,0.1463386,-0.2242627,-0.0213214,0.0356837,0.0447093,0.0109462,-0.2155604,-0.5372004,0.3170245,-0.0782597,0.1219087,-0.3406513,-0.0621352,1.3765776,-0.2370813,0.2292302,0.3159217,0.0771349,0.0111228,-0.2040711,0.2209215,-0.1001675,0.7365583,0.3653255,0.5030777,0.1207145,0.0721375,-0.1957740,-0.0353162,0.3281544,0.7526549,-0.6473619,0.2236904,-0.0069571,0.1250960,0.1872318,-0.3692313,0.1190199,0.1367738,-0.3462994,0.0060285,0.1830402,-0.8009100,-0.5087475,-0.0331672,1.7986021,-0.3350393,0.5743905,0.1291992,-0.3595993,0.0845955,0.6749683,-0.0735624,0.1176139,-0.0293145,-0.4917276,0.0191427,-0.0160293,-0.0045326,-0.0395408,0.5919403,-0.0320806,0.0570782,0.1324839,0.1216960,1.4546697,0.2224025,0.8989819,0.2278837,-0.2740934,-0.2023614,-0.0964701,-0.4182428,0.5082698,0.2284826,-0.4647708,-0.1002866,-0.0547911,-0.5167907,-0.4518396,-0.4725540,1.1808851,0.6077350,0.3307785,-0.0173048,-0.1254060,0.1199929,-0.3250012,-0.0908285,-0.3125042,0.2850108,0.0128093,-0.1163909,2.2936509,-0.5284476,0.2026068,-0.3333547,-0.0106214,-0.1151010,-0.3499303,1.4956744,0.2755306,-1.2009164,-0.5928543,0.2754692,1.2348335,0.4446330,-0.7416976,0.2236224,1.6200581,0.1315090,0.2314858,-0.5936980,-0.5165234,-0.2996914,0.1866553,0.0380931,0.3028798,0.2176973,-0.1671753,-0.1127202,0.3053487,-0.3494406,-0.0363258,0.1631583,0.3374797,-0.1550989,0.0118750,2.0839977,-0.0496429,-0.2467916,-0.4319955,0.0726804,0.3707185,0.2688029,0.0779868,0.5344874,-0.4078236,1.0197461,-0.2591639,0.4289999,0.3005322,0.7708092,-1.3780282,0.2999291,0.3247409,0.2962054,-0.2404069,-0.2289659,-0.3866459,-0.0675009,0.3987866,0.0644143,0.1759334,-0.6542277,0.6304910,0.0147391,0.4360575,-0.1640515,-0.5788673,-0.5306864,0.0750812,-0.2970988,0.0924286,0.0692377,-0.1379189,0.2401690,-0.3293566,0.2810149,0.3893863,0.1228486,-0.1420788,0.0539786,0.1221225,-0.0348724,0.1612460,-0.4721538,-0.1285468,0.0429954,0.2239323,-0.3380022,0.4068364,-0.0421782,0.0524992,0.6844149,0.3581450,0.8191714,-0.1160278,-0.0559458,-0.0244624,0.0870841,0.0318428,0.1669512,-0.1160369,-0.3958600,0.1703298,0.4337344,-0.0177289,0.0333532,0.6523152,-0.1892274,-0.5069076,-0.2054600,-0.1282696,0.1206346,-0.6141582,0.1422317,1.8522614,-0.0348915,0.0957635,-0.2130198,0.5900537,-0.1857823,-0.1884477,-0.3627257,1.2359493,0.2353409,-0.3301240,-0.4022586,-0.2236769,-0.2951074,-0.3602690,-0.2595021,-0.3836079,-0.3991648,0.0119872,0.0731213,-0.0032269,0.1421364,0.4506642,-0.4456618,-0.2411782,-0.4499260,-0.3117790,0.0195938,0.2871400,-0.4529157,1.4578927,0.0454995,-0.2324093,-0.4048731,0.2005895,-0.4578576,-0.1154287,0.0755168,-0.5530644,0.1022543,-0.0693804,-0.0341805,0.0713100,-0.3499539,2.6958194,0.2917025,0.0595809,0.1730896,0.2919804,0.1179126,-0.0031739,-0.2309092,-0.4557573,-0.4300413,0.0543968,-0.0247700,-0.2962040,0.1609920,-0.3443104,0.2235307,0.2605897,0.0077867,-0.1940380,0.6506261,0.2190952,0.0855130,0.0635767,0.0211794,-0.4810820,-0.4231941,-0.0630313,-1.0151385,0.0306760,0.1349912,0.0474495,-0.0551701,0.0719954,0.2923234,0.3440864,0.1463175,0.1099598,-0.3261119,0.3234711,0.0283680,1.1029773,-0.2431493,0.1034499,-0.2335390,-0.5544121,0.3644337,-0.2646428,-0.5310636,0.3540289,-0.0534935,0.3375038,-0.0972106,0.0569358,0.4772956,0.9751238,0.0628742,0.3668739,0.0091341,0.0019209,0.5095822,0.0951228,0.6076133,0.9400243,-0.3729248,-0.0106551,-0.5911856,0.1286753,-0.3850327,0.0924743,0.1990899,-0.1410057,0.5043724,0.0420172,-0.0149745,-0.4552139,0.4627769,-0.1945231,-0.0840911,-0.0633152,-0.4050634,-0.4774269,-0.3117015,-0.1570374,0.3000993,0.0431962,0.5505995,0.2616232,-0.0659954,-0.5698148,0.0048764,-0.3129056,-0.3510423,0.3423596,-0.4003894,-0.3244092,0.1204432,0.1691439,0.0946408,-0.2015215,-0.0567066,0.4784369,1.2864980,-0.4425018,0.0424655,0.1021023,-0.5569477,-0.2633754,-0.0227851,-0.8643558,-0.4207276,-0.1567718,-0.8615143,-0.6416358,-0.5689392,0.0029717,-0.4602203,0.1176402,-0.2198707,-0.1051632,0.2173328,0.0010032,0.0418968,-0.4657567,0.0552540,-0.0984381,0.0861480,0.2196967,0.2467874,0.1184635,-0.2941808,3.3354924,-0.0328121,0.3087708,-0.1504582,0.1262715,-0.0473397,-0.0937516,-0.2321594,-0.4973728,-0.3306502,-0.1363854,0.1387135,0.7452620,0.4673384,-0.4569191,-0.4150231,-0.0140087,0.1249069,-0.0050251,0.4110112,-0.0185487,0.3730605,-0.0754104,0.2551330,0.0032870,-0.3367987,0.1515989,-0.1640127,0.0833585,-0.1163499,-0.2710837,0.0191664,0.0408514,-0.0135616,0.0729479,-0.5329052,-0.4719874,0.0389776,0.0137248,-0.0174543,-0.0540967,0.0071636,-0.3055457,0.0787068,-0.1516011,-0.7589987,1.0521317,-0.2995571,-0.5713555,-0.2894399,0.4081771,-0.5194829,-0.3435631,0.1271339,-0.3732544,0.1223407,0.4264557,-0.0721548,0.0202219,-0.2432159,-0.5251976,0.0013679,0.0124575,0.1701418,0.1234481,-0.3575884,-0.2482979,-0.2221984,0.1121075,-0.2707078,-0.0382923,0.1763701,0.1913520,0.1059515,-0.5242595,0.0381155,0.0117207,0.1145544,0.0525080,0.2044069,1.7135615,0.1813816,0.3139245,0.1186156,-0.2662515,0.0080873,-0.0799106,0.1072999,-0.2437020,-0.8159119,0.6986613,0.0168137,-0.2846869,0.1524127,-0.3975926,-0.1488445,0.4027231,-0.1417142,-0.7944126,0.8350671,0.2832151,0.2465007,-0.0398872,0.2586166,-0.7249380,1.4722292,0.2377836,-0.1489386,-0.0426548,-0.7022718,0.2273019,-0.1559882,-0.8829598,-0.0716701,0.4899201,-0.4400317,0.0546666,0.0490414,0.2285447,-0.4735793,-0.4797650,-0.5280492,0.1503472,-0.0609754,0.2303738,0.3015300,0.0314256,-0.2068573,-0.2218865,0.0105591,-0.0199344,0.1269450,0.3405811,-0.1664793,-0.5991942,-0.1222130,0.2269604,-0.2526162,0.2877843,-0.4502817,-0.8521209,-0.3622912,-0.3804181,0.2867669,-0.1806227,0.0073207,0.0994829,-0.3517755,-0.3785361,0.1601204,-0.2038919,-0.1624536
-0.1509087,-0.4394093,0.4844233,0.2762339,-0.1702191,0.4329438,0.0921146,0.2846563,0.4493347,0.4975665,0.0777520,-0.6229246,-0.2709880,-0.3163122,3.0861650,-0.0729618,-0.6177727,0.5471501,0.9737297,0.2276671,0.0941818,-0.0069302,0.1212516,1.8092626,0.4662260,-0.3229655,-0.0166956,-0.1401531,0.1217016,-0.5188531,0.0598771,-0.6880755,-0.1001093,-0.1410933,-0.4938793,-0.3430099,0.4667007,0.2234759,-0.1281276,0.4377830,0.4850018,-0.0265922,-0.3564336,0.2294191,0.1136360,0.4430256,-0.1652238,-0.4282927,0.0978920,0.1103747,0.4462214,0.0834539,0.2586721,-0.0629593,0.2739187,0.0285328,0.1647577,1.6490334,-0.1013009,-0.4399157,-0.0719804,-0.1869248,0.2850181,0.2765759,0.9620335,-0.0300187,-0.0444538,0.4477241,-0.9409074,0.0178317,-0.2315844,0.2078113,-0.2031718,0.2411568,-0.1310688,0.0745859,0.2402794,0.3944872,1.1831130,3.5870397,0.3435191,-0.0987350,-0.1718570,0.9670903,0.2910096,0.1075171,0.1030224,-0.4381713,-0.1741949,0.8056185,0.6563578,0.0178136,-0.2958856,-0.1457784,-0.0642002,0.0531125,-0.7095272,0.0608462,-0.3986409,-0.6220133,0.2206184,1.0580192,0.1531341,-0.1762505,0.4754232,-0.2283994,-0.0126945,0.2605739,-0.0474649,0.1563006,0.3190103,-0.3563501,2.2884824,0.2389300,-0.4124164,0.1581174,-0.4109724,0.3931029,0.8739594,0.4874830,-0.0345104,-0.0883176,0.2277327,-0.1749900,0.1282817,-0.2580727,-0.3323459,-0.3707972,0.0664372,0.1834203,-0.4848493,0.1354680,-0.0029317,0.1666658,0.3200561,0.6152139,0.4044078,0.0506521,-0.7313120,-0.1625221,-0.6720629,0.4371456,0.3550740,-0.2039921,-0.2072805,-0.3799357,0.1754315,0.4768341,0.9267126,-0.4437317,-0.3459012,-1.0086637,0.0654393,-0.1905640,0.4220929,0.0683161,0.4939491,0.0322993,0.1196802,-0.1435146,0.1745016,0.1204756,0.3939423,0.3422917,-0.0856771,0.1990790,0.3753446,0.3575479,-0.1127655,-0.4227751,-0.1743212,-0.1912336,1.9708565,-0.4119575,0.3716511,0.4317918,1.2132475,0.1511738,-0.1572413,0.5143089,0.5384606,-0.6419285,1.7558622,-0.5321048,0.3397666,0.0389124,0.1751967,0.4704121,-0.0146349,0.1955825,-0.8265948,-0.3269208,0.8581911,1.1347814,0.5973769,0.8522302,0.6718631,0.5765249,-0.4594648,-0.4629948,0.1421785,0.8996954,0.3075113,0.5237836,0.1280469,-0.2421774,0.1750750,0.4139794,-0.1839252,0.2203586,0.3225917,0.2927084,0.2762802,0.8372657,0.0206695,-0.0628355,0.2931061,0.0617679,-0.6541665,0.3141245,0.6815788,-0.1582822,0.2323950,0.3457486,0.1835376,0.2485128,-0.1397484,0.1043412,0.0101882,-0.5346274,0.0949957,0.3565581,-0.0411940,-0.6255478,0.8912889,-0.0430462,0.2842184,0.2628222,0.2985059,0.2162431,-0.1012282,0.5142857,0.0678937,-0.4106187,0.4093718,-0.5538552,1.0873101,0.7344737,0.6488189,-0.0642157,-0.5822724,-0.1875376,0.1778620,-0.0138287,0.2866643,0.1991058,0.2832288,0.0221637,0.2776628,0.1651552,0.1369304,-0.3711039,-0.9702535,-0.2923827,0.3589577,-0.0055587,-0.1215350,0.4484401,0.3399695,0.1765008,-0.4450491,-0.2987912,-0.2050279,-0.5702052,-0.2055276,0.1941963,0.7514478,0.0098730,0.3723418,0.4722832,-0.2963164,0.1424523,0.1713728,2.5439489,-0.1118136,0.7290148,0.4353103,-0.1692682,1.4690597,1.1417681,0.2157692,0.1468391,-0.2387210,0.1161856,-0.3374144,0.6422347,0.2442190,0.0221275,0.0307289,-0.5166349,-0.2972446,0.0760753,0.3192664,0.1501191,-0.2585010,0.3786139,-0.5361253,-0.4196294,0.6545543,0.0221543,0.0049905,0.2588178,-0.4043268,0.2831844,0.3900551,0.1400712,-0.0889738,0.0451019,-0.7991949,0.3536273,-0.2015937,-1.2445408,0.1389524,1.2803503,0.3400519,0.6583838,0.2606476,-0.4253547,1.4707346,-0.2136694,0.3928060,0.1791474,-0.2824574,0.0194683,2.1928906,-0.6930806,-0.2278418,-0.6672344,-0.0342055,-0.1697432,-0.3070547,0.3141456,-0.3015316,0.4017074,-0.2917487,0.1573057,-0.5156515,0.1757869,-0.3853570,0.6975231,-0.1569699,0.0343711,1.8802373,0.1788442,-0.3328532,0.2565561,-0.3583750,0.0906298,0.0421350,0.4872086,-0.0997710,0.2156732,-0.2137043,-0.6178964,0.3055676,0.5009380,0.3339346,-0.0623270,-0.0452452,0.2884229,0.1394137,0.6371073,-0.3353254,0.5628979,0.5447289,0.0647731,0.1606645,0.3878523,-0.4212536,-0.1749375,0.1628681,0.1593205,1.1032500,-0.2471934,0.2534172,0.0433040,0.5512255,0.3209392,-0.1185524,-0.5078664,-0.3040377,0.4378313,-0.0846465,-0.2966003,0.2014568,-0.2457938,0.4179582,-0.5746519,0.2851739,0.4563838,0.1278800,0.5919384,-0.1637286,0.2042669,0.1933961,2.2712021,0.2179812,-0.1125751,0.3088033,0.4575364,-0.2956001,-0.5175132,-0.2115959,0.2110499,0.0556879,-0.1412012,0.0068872,-0.0114099,0.5388712,-0.6367816,-0.7985051,-0.3539168,2.9395435,0.2700482,0.1132955,-0.3537008,-0.3017796,0.2521792,0.3283311,-1.1582428,0.5390347,0.0211949,-0.0416220,0.8697209,-0.0038878,0.2540681,0.3881966,0.4637872,-0.0709267,0.9561951,3.6599727,0.3828336,0.1433213,0.4718808,-0.7727623,0.4350871,0.3373754,0.1036362,-0.4285800,0.3707832,-0.7900094,-0.5806828,-0.0329695,0.0528971,-0.2013167,-0.6479803,0.1013727,0.1345050,-0.4679983,0.4621036,-0.1681314,3.6772776,2.2404091,0.1638068,0.5337140,0.0925568,-0.2326719,0.0743581,0.6941935,0.5263640,0.1229580,-0.1474943,0.6917202,-0.0987865,-0.1956490,-0.0786302,-0.6774309,1.0271904,0.3886294,-0.3387572,-0.4749374,-0.2652729,0.0191790,0.3458554,-0.1798073,0.3121346,0.4203206,-0.1766167,0.3676082,-0.3986168,2.0813200,-0.2118612,0.3503399,-0.0073838,0.0155334,1.7918775,0.0714185,0.3978779,0.1888644,-0.3565257,0.1826816,0.2595995,0.1219074,0.4170638,-0.1982301,-0.1243967,0.4095638,0.0126212,-0.3106731,-0.1434763,0.0013198,0.3215572,-0.2358656,0.6077895,0.1427557,-0.3295687,0.4763226,-0.3561028,0.5299429,0.5558598,-0.0013005,-0.1181629,-0.3913409,-0.5265607,-0.6582427,0.2900027,-0.1772128,-0.1276855,-0.0700850,-0.4415656,0.2534740,0.3393758,-0.1564199,0.2523101,-0.1694699,-0.0227315,-0.4332328,0.7454974,0.3536033,-0.1643583,-0.2631971,-0.3318303,0.3582457,0.4920503,0.0131998,-0.4173689,-0.4057350,-0.0267570,0.0645181,-0.1817718,0.1381910,0.2369535,-0.3745925,0.3566208,-0.0094915,-0.3521151,-0.2225256,0.1395120,0.3293585,-0.2507745,1.1141498,0.5633348,-0.1119164,-0.3300501,0.0166293,0.9139889,-0.0261733,0.3841082,0.1626994,-0.6017184,0.6181070,-0.7158721,0.5933771,-0.3611274,-0.2799824,0.3072118,0.4080092,0.2143565,-0.4054706,-0.1160306,-0.3591977,-0.1466696,-0.5774432,0.4656149,-0.1872007,0.0938418,0.0056837,0.4856417,0.2102924,0.6236291,-0.1311197,-0.0685631,-0.0388596,-0.2207533,0.5654589,-0.4544117,-0.6990014,0.1772583,0.6998414,-0.3117400,0.1896528,-0.2772418,-0.2839385,-0.2110386,-0.6232170,0.0172951,0.1433477,0.4412382,-0.5423240,0.2520342,0.1085746,4.2884607,0.4415685,-0.4904764,1.0606986,0.2808499,-0.0632666,3.1053894,-0.3100667,2.3477526,0.1536122,-0.4070254,-0.0163713,-0.1177013,0.2220731,-0.1701045,-0.3543656,0.8894479,0.0654480,-0.1520442,0.4921431,-0.2590986,-0.1245840,-0.4740095,-0.3008337,-0.0311536,-0.5213766,-0.7356358,-0.1745904,0.3266212,-0.0297873,0.3019480,0.0016186,0.5478641,0.8396458,0.3413195,-0.2006968,-0.3464113,-0.3934416,-0.5857888,-0.0598655,0.2987875,-0.1253356,0.1202998,1.7988034,0.1844014,0.7150776,0.0375614,0.3327424,0.3735068,0.2243634,0.0136066,0.2965005,0.4612019,-0.5863547,0.3758140,-0.0549696,-0.2244114,0.0809129,-0.4158759,0.0739587,-0.2343135,0.0504568,-0.2495315,0.2736056,0.6966548,0.3909544,-0.4591086,-0.3333528,-0.3306982,-0.2289476,-0.0661821,-0.0732036,-0.2391315,0.0293933,0.3290290,0.1968557,-0.2806875,0.1853722,-0.0359560,0.8109186,-0.0017416,0.1501384,-0.1387450,0.3103962,-0.5758075,0.2797099,-0.3983734,0.5131277,0.9007828,0.2498869,0.2502107,0.3190421,-0.4912201,0.2227269,-0.6172004,0.0693839,0.2261533,0.0598420,-0.4915738,-0.2854215,0.2848525,-0.2062993,0.2185758,0.0300718,-0.0028641,0.2189784,-0.2826004,0.2706697,0.2749009,0.1817829,0.1026964,-0.0902281,-0.4674425,0.8086698,0.2710888,0.5367825,0.4120222,-0.1239890,0.6450692,-0.4312335,0.9329711,0.2553931,0.5441816,0.6450496,0.4994628,-0.0968540,0.0002767,-0.5092603,-0.0424758,0.5390140,0.3112676,0.1299226,0.2869107,0.2789472,-0.1158847,0.2831468,0.1876943,0.5088549,0.2840412,0.4805053,0.2357999,-0.3575834,0.1854182,-0.0948888,4.2722287,-0.0263515,-0.4264845,0.2013479,1.2312115,0.7758756,0.6397545,-0.0303122,-1.6295935,-0.0682867,0.4604826,0.3638082,-0.0588444,-0.1444027,-0.7708645,-0.3284013,0.1791212,0.2785813,-0.1704731,0.2245561,0.3445831,0.2103643,0.3464940,-0.4866696,0.7396135,0.2932072,0.4795676,-0.6542877,0.9268592,-0.6179387,-0.5009692,0.3586730,-0.6433091,0.2869511,0.1336371,1.6789048,0.2139122,0.0992059,0.3947373,3.9317806,-0.1071414,-0.1813676,0.3113901,0.1029755,-0.0195856,0.1313053,-0.2008220,-0.1815082,0.3405068,0.1174322,-0.1180746,-0.6972331,-0.3654757,-0.1889694,0.3963246,0.2810358,0.4140007,0.1917393,-0.5045965,0.4044947,0.4710610,0.3689103,0.6765793,0.2865541,0.3135061,0.2736169,0.2441470,0.2984723,0.2949669,-0.0736752,-0.1587393,-0.6005459,0.2073333,0.0991770,-0.2440464,0.7841682,-0.2636317,0.0533410,0.2145334,-0.4305663,0.5580366,-0.4208859,0.0825705,-0.2730552,0.1871109,0.2211410,0.2973892,0.1417923,0.7944695,-0.4193164,0.3336914,-0.1274676,0.1994995,-0.2991855,-0.0584944,0.7227612,-0.2891706,-0.2158942,0.2119133,0.2441422,0.7371249,0.5669956,0.5558017,0.4038056,0.2361523,0.2526062,0.2690960,0.2799020,0.8449671,-0.4926639,0.2824565,0.6116225,-0.0044497,0.4849641,0.3034741,0.4948484,-0.3366186,-0.3862678,0.1071504,-0.2686747,0.0019940,0.8018591,0.0238444,0.0546638,0.4476893,-0.0863617,0.3327541,0.0311038,0.3542657,-0.3107989,0.4388690,-0.4744185,0.0205992,0.7601162,0.6535684,0.7437516,0.1701815,0.4357671,0.1866195,-0.0087061,-0.4829001,0.2814362,0.3119961,0.2271988,2.0901954,0.1538400,0.2219149,0.1569195,-0.3813821,0.0840609,-0.0045883,0.7483819,-0.3464514,0.0438721,-0.1322593,-0.1387135,0.3420546,0.2196475,0.5112233,0.1692881,0.0963066,0.2301185,-0.3353118,0.2478001,-0.1330447,0.5787442,0.3547307,0.3328077,0.3719117,0.8447853,-0.0581845,0.3085834,-0.0985835,-0.0122215,0.2252691,0.6105050,-0.2759860,0.0595454,-0.1201594,-0.7408978,0.2791402,-0.6018171,0.2770357,0.1065445,0.0422262,0.5768775,0.3066181,-0.1853945,0.1027128,0.1659295,0.1824984,0.1246116,-0.0906001,-0.5087743,0.5432934,0.0183399,0.2062118,-0.2712585,0.0438951,1.8441495,-0.1546006,0.3952948,0.4935025,0.2186660,0.1337666,-0.1169762,0.3887423,-0.0376847,1.0056101,0.5613112,0.7328617,0.2741468,0.1311261,-0.0963190,0.0943762,0.4957310,1.0125235,-0.6016346,0.3939571,0.1065700,0.2721997,0.2639595,-0.3190075,0.2614841,0.2780358,-0.2844874,0.1935446,0.3006928,-0.7722658,-0.4591598,0.0755963,2.3095162,-0.2722416,0.8049938,0.2719726,-0.2856255,0.2228435,0.9266173,0.0107322,0.2799599,0.1283536,-0.4463669,0.1402433,0.0738752,0.1024160,0.1134981,0.8233377,0.1131777,0.1812614,0.4631231,0.2459225,1.8314365,0.3790407,1.2292892,0.3195113,-0.2007724,-0.1234976,0.0699126,-0.3537300,0.7230710,0.3810077,-0.4168800,-0.0095140,0.0699959,-0.4727631,-0.4311737,-0.4257576,1.5865525,0.8452919,0.5247250,0.1545637,-0.0256581,0.2698469,-0.2606494,0.0161473,-0.2455370,0.4512489,0.1449374,-0.0130046,2.8902218,-0.4813475,0.3667961,-0.2670515,0.0503747,-0.0235526,-0.2947007,1.9821017,0.4641753,-1.1736562,-0.5460778,0.4592053,1.6642948,0.6478853,-0.7081423,0.3919590,2.1732848,0.2684858,0.4033394,-0.5558352,-0.4886442,-0.2074969,0.3336849,0.1644959,0.5103005,0.3963247,-0.1294503,-0.0175700,0.4888999,-0.2783441,0.0736985,0.3189351,0.5030236,-0.0685251,0.0486534,2.6483474,0.0604556,-0.1731618,-0.4002730,0.2202232,0.4428478,0.4770599,0.2214346,0.7621936,-0.3416244,1.3679781,-0.1899223,0.6243902,0.4810302,1.0520899,-1.3478042,0.4879055,0.5126787,0.4635657,-0.1663376,-0.1504046,-0.3268407,0.0116363,0.5886924,0.2175912,0.3276359,-0.6120586,0.9199612,0.1303847,0.5796259,-0.0738708,-0.5301611,-0.4849604,0.2018392,-0.2240686,0.2294700,0.2719034,-0.0481911,0.4579920,-0.2642893,0.4575685,0.6261463,0.2697899,-0.0128704,0.1154970,0.2577475,0.0755065,0.3194717,-0.4248664,-0.0358818,0.1720671,0.3476657,-0.2742933,0.6088445,0.0599100,0.1961271,0.7264256,0.5780479,1.1552467,-0.0230840,0.0404497,0.0862212,0.2371364,0.1570604,0.2887707,-0.0341646,-0.3413480,0.3659169,0.6385328,0.0816052,0.1598823,1.0586168,-0.0893597,-0.4570368,-0.0939799,-0.0443495,0.2701169,-0.6000090,0.2938199,2.4284623,0.0864126,0.2318105,-0.1251831,0.8705357,-0.0081571,-0.0923240,-0.3053733,1.6686896,0.3196030,-0.2632100,-0.3457512,-0.1474663,-0.2217430,-0.2985494,-0.1903421,-0.3249275,-0.3420747,0.1475018,0.2101107,0.0604293,0.2893204,0.6947463,-0.3865977,-0.1692114,-0.3994558,-0.2402038,0.1604400,0.4806385,-0.4061356,1.8720534,0.1696295,-0.1589696,-0.3505095,0.3737221,-0.4145404,-0.0194220,0.1905385,-0.5077745,0.2549748,0.0468935,0.0898329,0.1667821,-0.2870125,3.5163908,0.4708620,0.1246996,0.3174182,0.3612295,0.2263075,0.1210340,-0.1546330,-0.4045860,-0.3807522,0.1873418,0.1445596,-0.2457094,0.3301491,-0.2778895,0.3969983,0.4373728,0.1457521,-0.0958191,0.9187123,0.3877322,0.2114420,0.2224367,0.1191587,-0.4282211,-0.3713704,0.0554639,-0.9895242,0.0820501,0.1989465,0.1777236,0.0082860,0.1918994,0.4821313,0.5739853,0.2902412,0.2525435,-0.2622786,0.5201353,0.1656245,1.2628559,-0.1660256,0.2346330,-0.1543786,-0.5108592,0.5345930,-0.1954970,-0.4870981,0.5484629,0.0889207,0.5339803,-0.0025652,0.2030857,0.7026947,1.3409944,0.1901674,0.5494070,0.1211915,0.1236846,0.7286010,0.2106465,0.8319269,1.1026176,-0.3096598,0.0964369,-0.5366879,0.2845935,-0.3354309,0.2708608,0.3348581,-0.0363258,0.7253260,0.1853826,0.0999976,-0.4115962,0.7133744,-0.1123757,0.0278273,0.0736459,-0.3382665,-0.4265791,-0.2363844,-0.0748919,0.4731088,0.1758091,0.7580556,0.4354369,-0.0095347,-0.5284025,0.1632542,-0.2376554,-0.2852790,0.5185791,-0.3461216,-0.2597082,0.2613679,0.3047096,0.2287517,-0.1101023,0.0421257,0.5981981,1.5459079,-0.3886465,0.1667664,0.2551135,-0.5135998,-0.1926079,0.1223691,-0.8352013,-0.3672824,-0.0592876,-0.8328894,-0.6048800,-0.5301877,0.1023634,-0.4307529,0.2560317,-0.1764957,-0.0072987,0.3770156,0.2379542,0.1653386,-0.4353150,0.1867999,0.0021988,0.2203152,0.4688965,0.4208204,0.2475153,-0.2245352,4.2966862,0.0556823,0.4703396,-0.0958871,0.3141550,0.0210186,0.0076629,-0.1571785,-0.4497159,-0.2639676,-0.0476332,0.2958250,1.0476727,0.6405941,-0.4035715,-0.3618669,0.0971898,0.2806888,0.1193792,0.6368860,0.1015380,0.5865427,0.0384180,0.4154505,0.0821539,-0.2815194,0.3113722,-0.0694171,0.2119435,0.0011288,-0.1985414,0.1360388,0.1613811,0.0890721,0.2352755,-0.4839097,-0.4197322,0.1760133,0.1330181,0.0872996,0.0418400,0.1274861,-0.2426957,0.2070355,-0.0561977,-0.7261454,1.5385652,-0.2324744,-0.5315276,-0.2515855,0.5994066,-0.4713917,-0.2802968,0.2828837,-0.3064531,0.2491913,0.6611670,0.0357564,0.1384044,-0.1597267,-0.4769963,0.1816342,0.1417122,0.3284280,0.3001279,-0.3302922,-0.1720323,-0.1480770,0.2557541,-0.2015561,0.0833508,0.3225798,0.3601312,0.2589315,-0.4623375,0.1665424,0.0912708,0.2585320,0.1760410,0.2986020,2.2432508,0.3419841,0.4610827,0.2809614,-0.1940123,0.1182607,0.0577095,0.3133828,-0.1713791,-0.7844446,0.9999663,0.1305640,-0.2339285,0.3030378,-0.3412084,-0.0542095,0.6320744,-0.0511249,-0.7637773,1.4300616,0.4618172,0.4094375,0.0546758,0.4202083,-0.6903520,3.8100770,0.4200740,-0.0622682,0.0753115,-0.6664556,0.2869115,-0.0745808,-0.8544720,0.0241622,0.7690760,-0.3825805,0.1799302,0.1651169,0.3925701,-0.4278808,-0.4353996,-0.4846706,0.2907408,0.0715897,0.3984272,0.4843468,0.1483798,-0.0696098,-0.1355995,0.1340151,0.0938939,0.2880266,0.4780118,-0.0745689,-0.5590529,-0.0227023,0.3913485,-0.1629706,0.4511720,-0.3953689,-0.8201666,-0.3006670,-0.3219902,0.4198629,-0.0983359,0.1144251,0.2314018,-0.2718822,-0.3297476,0.3201957,-0.1463572,-0.0801444
-0.0773501,-0.3784192,0.6608749,0.4120503,-0.0898410,0.5447741,0.2247861,0.4306123,0.6221014,0.6510367,0.1795980,-0.5887973,-0.2048123,-0.2564510,3.8473289,0.0202125,-0.5859213,0.7439154,1.2470485,0.3971015,0.2235695,0.1013763,0.2396170,2.2264311,0.6145441,-0.2610480,0.0908496,-0.0647253,0.2481976,-0.4553921,0.1309374,-0.6440299,-0.0115353,-0.0581437,-0.4478969,-0.2853202,0.6777668,0.3627408,-0.0533391,0.6127801,0.6530702,0.0733411,-0.3010988,0.3699176,0.2762057,0.6143289,-0.0917091,-0.3778487,0.2198242,0.2239058,0.6126298,0.1856714,0.3428127,0.0024612,0.4276673,0.1873619,0.2954228,2.0834169,-0.0013270,-0.3872843,0.0150582,-0.1117714,0.4271812,0.4528636,1.1027961,0.0229863,0.0436012,0.6204138,-0.9149704,0.0977109,-0.1647731,0.3300521,-0.1664177,0.3883103,-0.0471472,0.1821530,0.3891475,0.5520808,1.4818467,4.3623800,0.5022984,-0.0099986,-0.0912824,1.2269852,0.4534414,0.2250289,0.2170378,-0.3847870,-0.0988357,1.0623560,0.8015377,0.1207909,-0.2312801,-0.0662644,0.0306860,0.1268359,-0.6880155,0.1699789,-0.3470571,-0.5868099,0.3567819,1.3811737,0.2768452,-0.1181336,0.6538964,-0.1572827,0.0938679,0.3594006,0.0535499,0.2558380,0.4911796,-0.3021017,2.8336184,0.3799372,-0.3628188,0.2318113,-0.3598888,0.5515162,1.1308186,0.6692981,0.0703683,-0.0098223,0.4379729,-0.1022123,0.1950027,-0.1888563,-0.2732584,-0.3108391,0.1703959,0.3073696,-0.4397676,0.2509724,0.0654608,0.3069461,0.4686345,0.8296736,0.5850359,0.1765214,-0.6912163,-0.0847912,-0.6394917,0.6027603,0.5176904,-0.1278665,-0.1331209,-0.3246734,0.3122730,0.6776863,1.1700805,-0.3939993,-0.3078510,-0.9880594,0.1585995,-0.1400704,0.5761042,0.2048847,0.6453490,0.1629467,0.2486456,-0.0575807,0.3068176,0.2340179,0.5486545,0.5041171,0.0037536,0.2755013,0.5327647,0.5483737,-0.0603647,-0.3754016,-0.0984398,-0.1177269,2.5751605,-0.3614146,0.5218601,0.6459597,1.5437199,0.2703220,-0.0597032,0.7017232,0.7118506,-0.6062400,2.1577740,-0.4882926,0.4600824,0.1548184,0.3024835,0.6425648,0.0920186,0.3490540,-0.7971895,-0.2654821,1.1188153,1.4205563,0.8340189,1.1216316,0.8756522,0.7655569,-0.4156434,-0.4187800,0.2964698,1.4361000,0.4541360,0.7061391,0.3026034,-0.2048552,0.3001667,0.6246920,-0.1059110,0.3634171,0.4735455,0.4429688,0.4182315,1.0695556,0.1256605,0.0246814,0.4938603,0.1892463,-0.6187905,0.5015057,0.9138789,-0.0816402,0.3765239,0.4566709,0.3191195,0.4109963,-0.0699369,0.2157955,0.1159046,-0.4874663,0.2021323,0.4804766,0.0713162,-0.5876539,1.2499090,0.0516945,0.4364019,0.4067667,0.5874302,0.3603249,-0.0439819,0.6942499,0.1982630,-0.3584934,0.5735727,-0.5153468,1.4796507,0.8833205,0.8561704,0.0272555,-0.5612401,-0.1440198,0.3086224,0.0672315,0.3617076,0.2736680,0.4261176,0.1409995,0.4179384,0.2995677,0.2661941,-0.3192006,-0.9450049,-0.2265313,0.5109003,0.0947801,-0.0833306,0.6323435,0.5019894,0.3107403,-0.3931570,-0.2354020,-0.1353096,-0.5278580,-0.1315615,0.3174091,0.9853978,0.1606007,0.6406371,0.6541737,-0.2332827,0.2567695,0.2947861,2.8457623,-0.0246999,0.9168650,0.6217125,-0.0984964,1.8517314,1.5910214,0.3556618,0.2452533,-0.1697898,0.2405749,-0.2794326,0.8739362,0.3789750,0.1320285,0.1410125,-0.4717152,-0.2331485,0.1938317,0.4610052,0.2752250,-0.1909239,0.4167987,-0.4955035,-0.3832023,0.8588362,0.1261407,0.1049359,0.4070506,-0.3504841,0.4245803,0.5446376,0.3036205,0.0276456,0.1883511,-0.7688360,0.5134447,-0.1317171,-1.2228951,0.2641822,1.6636174,0.4817624,0.8878207,0.4137581,-0.3752978,1.8398789,-0.1457402,0.5741637,0.3254481,-0.2196523,0.1404540,2.6324422,-0.6548984,-0.1633249,-0.6322590,0.0559848,-0.0930633,-0.2486785,0.4675775,-0.2376936,0.5771496,-0.2312163,0.3053637,-0.4566389,0.3373576,-0.3325865,0.9674788,-0.0780497,0.0939314,2.2568209,0.3070383,-0.2771353,0.3983248,-0.3132915,0.2419034,0.1559179,0.6563308,-0.0110613,0.3431300,-0.1435564,-0.5824358,0.4548815,0.7487416,0.5198474,0.0321321,0.0558966,0.4376113,0.2518840,0.9081863,-0.2756302,0.7668837,0.7401911,0.1818584,0.2999062,0.5499474,-0.3727263,-0.1137065,0.2858662,0.2836403,1.3760161,-0.1821227,0.3965777,0.1551990,0.7549194,0.4859585,-0.0096103,-0.4711084,-0.2459683,0.6223267,0.0047494,-0.2438568,0.3336822,-0.1825692,0.5662842,-0.5138684,0.4824608,0.6273575,0.3318475,0.8100605,-0.0213906,0.3108187,0.4113058,2.8328049,0.3464943,-0.0229191,0.3889915,0.6194479,-0.2331343,-0.4742505,-0.1357644,0.3360792,0.1608333,-0.0467527,0.1371223,0.0905823,0.6367767,-0.6145622,-0.7691208,-0.3208785,3.6441989,0.3499083,0.2345754,-0.2697212,-0.2402627,0.3949365,0.4669805,-1.1348720,0.7521054,0.1335278,0.0509100,1.0304942,0.1027847,0.4027146,0.5678302,0.5733984,-0.0084560,1.2273616,4.3683677,0.5124474,0.2683262,0.6624597,-0.7419887,0.7186661,0.4895993,0.2202134,-0.3772983,0.5224696,-0.7621781,-0.5117113,0.0108138,0.2257416,-0.1372864,-0.6108764,0.2078544,0.2500563,-0.4192688,0.6471588,-0.1073435,4.1892285,2.7288947,0.2458251,0.7123559,0.2000007,-0.1617178,0.1517553,0.9151500,0.7080879,0.2414677,-0.0686788,0.9013334,-0.0137930,-0.1197838,0.0230646,-0.6398973,1.3473547,0.5418797,-0.2822552,-0.4270464,-0.1969131,0.1489883,0.4313814,-0.1027814,0.4849154,0.6196084,-0.0939927,0.5442137,-0.3485500,2.4527857,-0.1419238,0.4811444,0.0872807,0.1247038,2.2368383,0.2348181,0.5500934,0.3276956,-0.3057260,0.2877001,0.3400905,0.2411820,0.5942034,-0.1176866,-0.0382805,0.5749345,0.1186487,-0.2479514,-0.0685976,0.1373189,0.4661144,-0.1710701,0.8362611,0.2681843,-0.2723638,0.6498167,-0.3030931,0.7080780,0.7718635,0.0845229,-0.0280738,-0.3388452,-0.4727788,-0.6053346,0.4323289,-0.1422154,-0.0463643,0.0123685,-0.3960028,0.4186146,0.4798001,-0.0758370,0.3944364,-0.0975407,0.0736139,-0.3816997,0.9551114,0.5100668,-0.0915035,-0.2000944,-0.2923165,0.5178621,0.6760339,0.1255751,-0.3607338,-0.3352749,0.0783111,0.1673410,-0.1291038,0.2558057,0.3762078,-0.3114452,0.5253772,0.0994497,-0.2990721,-0.1507567,0.2715381,0.4895002,-0.1762260,1.4577630,0.8544527,-0.0178552,-0.2709095,0.1344798,1.1872017,0.0655338,0.5366071,0.2889027,-0.5608757,0.8064554,-0.7063603,0.8212412,-0.2913322,-0.2140915,0.4641953,0.5877063,0.3624405,-0.3567204,-0.0342185,-0.2835170,-0.0654449,-0.5387021,0.6356720,-0.1134604,0.2587986,0.1105955,0.8003169,0.3407427,0.8198945,-0.0390648,0.0207430,0.0878050,-0.1579727,0.7610833,-0.4064829,-0.6673272,0.3195763,0.8332630,-0.2514402,0.2775569,-0.2141812,-0.2236649,-0.1406019,-0.5867366,0.1241963,0.2793226,0.6178554,-0.5215083,0.4000347,0.2612262,5.1896172,0.6127715,-0.4448721,1.3827316,0.4450885,0.0252715,3.8813202,-0.2484919,3.1098754,0.2589106,-0.3545273,0.1238030,-0.0292602,0.3531524,-0.0964097,-0.2963539,1.0620817,0.1822073,-0.0777028,0.6788509,-0.2162487,-0.0428109,-0.4258123,-0.2404401,0.0621431,-0.4793932,-0.7035578,-0.1000088,0.5371979,0.0489449,0.4464013,0.0599704,0.7376660,1.0729098,0.5129355,-0.1287372,-0.2894382,-0.3409611,-0.5479826,0.0518671,0.4363301,-0.0717735,0.2655966,2.1866801,0.3126636,0.8264573,0.1036683,0.4684152,0.5449609,0.3874269,0.1141687,0.4087882,0.6386458,-0.5365041,0.5270978,0.0295322,-0.1805704,0.2001595,-0.3649629,0.1923951,-0.1678066,0.1809876,-0.1868576,0.4824140,0.8898996,0.5361609,-0.4155928,-0.2436303,-0.2816319,-0.1559482,0.0262800,0.0175380,-0.1972849,0.1418417,0.4806359,0.3374148,-0.2201238,0.2540245,0.0658886,1.0823264,0.1039559,0.2874067,-0.0485892,0.4652758,-0.5265056,0.4454111,-0.3456861,0.6939099,1.1709151,0.3801473,0.3874693,0.4751060,-0.4458337,0.3931448,-0.5790362,0.1736596,0.3679683,0.1891300,-0.4429967,-0.2244315,0.4491117,-0.1529647,0.3614605,0.1012369,0.0967674,0.2670512,-0.2174108,0.4196190,0.4022570,0.2780186,0.2313971,-0.0327903,-0.4148627,1.0377300,0.4113896,0.7210457,0.5899841,-0.0362964,0.8740975,-0.4054570,1.1919297,0.3906341,0.7411423,0.8627859,0.6597552,0.0481967,0.1281690,-0.4655755,0.0547224,0.7277219,0.4592076,0.2892812,0.4131808,0.4323128,0.0077068,0.4086548,0.3055429,0.7016620,0.4493816,0.6665076,0.3275337,-0.3019929,0.3233314,-0.0155406,5.2102833,0.0694568,-0.3735938,0.3588773,1.6118991,1.0003502,0.8670545,0.0605793,-1.6073316,0.0213135,0.6462494,0.5275769,0.0112574,-0.0637246,-0.7408304,-0.2675144,0.3612914,0.4143316,-0.0972485,0.3988628,0.4957223,0.4755019,0.4816518,-0.4419203,0.9788750,0.4731034,0.7495002,-0.6245149,1.1826509,-0.5646548,-0.4561310,0.4948926,-0.6206449,0.4390721,0.2335765,2.2549956,0.3391055,0.2058257,0.5550639,4.8065972,-0.0223789,-0.1085340,0.3588785,0.2333752,0.0961909,0.2538816,-0.1286974,-0.1095957,0.5045184,0.2495018,-0.0324317,-0.6633520,-0.2975378,-0.1181914,0.5565798,0.4244615,0.5836701,0.2807235,-0.4854310,0.5391863,0.6253153,0.5282738,0.9167354,0.5006927,0.4718874,0.4063572,0.3967581,0.3769271,0.4989885,0.0128743,-0.0832824,-0.5632399,0.3491304,0.2221834,-0.1693765,1.0478565,-0.1994965,0.1841336,0.3281046,-0.3824140,0.7578648,-0.3648218,0.1919765,-0.2072948,0.2853566,0.3555054,0.4423642,0.2665133,0.9322627,-0.3671410,0.5124444,-0.0453287,0.3262172,-0.2190213,0.0333750,0.9384831,-0.2315463,-0.1488248,0.3436748,0.3331734,0.9849457,0.7524428,0.7460459,0.6433399,0.3804520,0.3901350,0.4105314,0.4321938,1.0803773,-0.4490410,0.4328201,0.8418276,0.0910964,0.6625313,0.4248196,0.6620234,-0.2758361,-0.3287014,0.2559534,-0.2044101,0.1089529,1.0355999,0.1258170,0.1824108,0.6200567,0.0570722,0.4931349,0.1322194,0.5036330,-0.2381166,0.6096927,-0.4303672,0.1112085,0.9750459,0.7735687,0.9800296,0.3053476,0.5890937,0.3127180,0.0388334,-0.4348354,0.4229185,0.4695539,0.3646333,2.4897327,0.2539337,0.3835705,0.2338797,-0.3285180,0.2069861,0.0636782,0.9630069,-0.2926292,0.1740928,-0.0450756,-0.0635024,0.4809654,0.3469632,0.6949233,0.2578373,0.2078003,0.3009057,-0.2658409,0.3817611,-0.0560002,0.7740135,0.5043985,0.4686865,0.5222087,1.0705040,0.0988291,0.4735146,-0.0180601,0.0605166,0.3589790,0.8378100,-0.2261658,0.1300271,-0.0784248,-0.7107677,0.3535016,-0.5635493,0.4289092,0.2179269,0.1598351,0.7779090,0.4684740,-0.1358288,0.2262568,0.2951077,0.3140947,0.2387628,-0.0106256,-0.4480280,0.7655011,0.1161176,0.4070822,-0.2101627,0.1494204,2.3816903,-0.0752923,0.5619111,0.6710833,0.3427046,0.2559198,-0.0294106,0.5565630,0.1113483,1.2708366,0.7525743,0.9290049,0.4135361,0.1713218,0.0022278,0.1328786,0.6243946,1.2777196,-0.5650147,0.5594796,0.2196872,0.4036771,0.4327607,-0.2678746,0.3960882,0.4182515,-0.2145652,0.3263899,0.4049420,-0.7436216,-0.4093730,0.1851868,2.8271351,-0.2242434,1.0453582,0.4018156,-0.2423340,0.3605638,1.1782664,0.0825988,0.4395466,0.2541942,-0.3996257,0.2584022,0.1746771,0.2108363,0.2633039,1.0547351,0.2109753,0.3054445,0.5463514,0.3671313,2.0519474,0.5329875,1.5461146,0.5647661,-0.1264070,-0.0459373,0.1869289,-0.2944880,0.9312906,0.5335327,-0.3693663,0.0794960,0.1666208,-0.4270126,-0.3980301,-0.3793718,1.9717505,1.1260411,0.6902184,0.2347341,0.0740898,0.4208717,-0.1966436,0.1332857,-0.2055306,0.6174871,0.2770655,0.0865349,3.8557243,-0.4333016,0.5326003,-0.2011652,0.1285986,0.0125282,-0.2293354,2.4282103,0.5798325,-1.1467620,-0.5096440,0.6440862,1.8783073,0.8521881,-0.6753008,0.5537793,2.7225027,0.4044404,0.5412602,-0.5179725,-0.4330835,-0.1149608,0.4164240,0.2818700,0.7114872,0.5610738,-0.0824947,0.0912229,0.6495073,-0.2118717,0.1879186,0.4758366,0.6870253,0.0167236,0.1386114,3.2215564,0.1720486,-0.0995319,-0.3280162,0.3622270,0.5645659,0.6807896,0.3777765,0.9951547,-0.3071232,1.7162100,-0.1202425,0.8203799,0.6620269,1.3216249,-1.2834140,0.6817730,0.6974131,0.6315011,-0.0939236,-0.0727360,-0.2666053,0.1371644,0.6722988,0.3681452,0.4765803,-0.5784760,1.2102399,0.1959820,0.8398818,0.0080700,-0.4799506,-0.4394203,0.3271513,-0.1506163,0.3670228,0.3458763,0.0689536,0.6770052,-0.1996379,0.6341221,0.8575923,0.4124095,0.1301499,0.2178554,0.3868424,0.1839405,0.5722283,-0.3770813,0.0585826,0.2960970,0.5163425,-0.2097117,0.8072981,0.1639064,0.3412511,0.9370971,0.7948965,1.4838387,0.0717187,0.1561244,0.1964016,0.3888080,0.2827267,0.4568165,0.0481410,-0.2868359,0.4488288,0.8444534,0.1815168,0.2995916,1.3457516,0.0105081,-0.4086547,-0.0080194,0.0400243,0.4206593,-0.5599501,0.4454081,2.6133397,0.2092522,0.3678575,-0.0353226,1.1510177,0.1172254,-0.0069833,-0.2467369,1.9701490,0.3843758,-0.2032748,-0.2896349,-0.0707967,-0.1554928,-0.2359544,-0.1211822,-0.2658280,-0.2894384,0.2587989,0.3454820,0.1322221,0.3731875,0.9287144,-0.3287598,-0.0968058,-0.3466473,-0.1682001,0.2933791,0.6758698,-0.3499996,2.2683485,0.2691387,-0.0855299,-0.2969759,0.5392802,-0.3701077,0.0759225,0.3040468,-0.4626773,0.4055057,0.1646208,0.2065514,0.3278911,-0.2232264,4.4160275,0.6540028,0.1772596,0.4658853,0.4669256,0.3356368,0.2432860,-0.0779134,-0.3538084,-0.3373542,0.3192642,0.2841557,-0.1968796,0.5024485,-0.2102896,0.5389783,0.6153228,0.2893802,-0.0129894,1.1762242,0.5536925,0.3345411,0.4093945,0.2171380,-0.3774746,-0.3203564,0.1126039,-0.9637203,0.1675040,0.3155709,0.3104840,0.1417452,0.3130997,0.6601812,0.7317591,0.4341648,0.3946011,-0.1988708,0.7035276,0.3028810,1.4251754,-0.0893212,0.3636829,-0.0738294,-0.4673063,0.7268403,-0.1438511,-0.4429406,0.7440176,0.2394266,0.7348108,0.0947843,0.3487041,0.9135909,1.6994586,0.3179887,0.7325071,0.2332488,0.2459556,0.9483648,0.3924894,1.0555397,1.2980422,-0.2430127,0.2072059,-0.4956436,0.4466589,-0.3036775,0.4139065,0.4758281,0.0613463,0.9462796,0.3277489,0.2125442,-0.3655554,0.9805861,-0.0297794,0.1402159,0.1742118,-0.2714695,-0.3751514,-0.1713188,0.0077258,0.6461182,0.3078998,0.9631808,0.6100371,0.0568313,-0.4862304,0.2945674,-0.1619752,-0.2193042,0.5961599,-0.2914364,-0.1966988,0.3996537,0.4375749,0.3591666,0.0208634,0.1391853,0.8314831,2.1091001,-0.3339844,0.3094637,0.4086450,-0.4841231,-0.1391301,0.2147856,-0.8053485,-0.3136340,0.0405177,-0.7998197,-0.5679287,-0.4900593,0.2433852,-0.3748046,0.3914995,-0.1386488,0.0920523,0.5400021,0.4590060,0.2942531,-0.3649188,0.3183458,0.1157690,0.3451219,0.7154564,0.5715576,0.3726565,-0.1519703,5.2984934,0.2023302,0.6319084,0.0348954,0.5042360,0.1396962,0.1081252,-0.0821977,-0.4029293,-0.1982562,0.0193748,0.4394104,1.3487772,0.7296282,-0.3502239,-0.3097290,0.1601048,0.4359682,0.2461943,0.8610232,0.2394342,0.7991975,0.1542089,0.5784134,0.2120214,-0.2091214,0.4695687,-0.0090784,0.3415027,0.0626653,-0.1264496,0.2509634,0.2833806,0.1975986,0.3940073,-0.4360580,-0.3672761,0.3096231,0.2538540,0.1945125,0.1678586,0.2781419,-0.1806893,0.3320858,0.0224593,-0.6934820,1.9298561,-0.1653917,-0.4709972,-0.2196600,0.7894806,-0.4230992,-0.2178683,0.3728011,-0.2396518,0.4253145,0.8851281,0.1422093,0.2586603,-0.0920663,-0.4289900,0.3094862,0.2709669,0.4888460,0.5391333,-0.2669095,-0.0953816,-0.0743743,0.3988840,-0.1328421,0.2059671,0.4856785,0.5294428,0.4103715,-0.4144792,0.2990972,0.2487801,0.4085086,0.2441802,0.4116360,2.8031003,0.4959162,0.6097899,0.4345745,-0.1217732,0.1959067,0.1739328,0.4688140,-0.0981901,-0.7531501,1.3080932,0.2119503,-0.1843786,0.3762870,-0.2856533,0.0408963,0.8661790,0.0399388,-0.7331419,1.6904453,0.6320636,0.5708076,0.1492389,0.5833893,-0.6559570,5.2861228,0.6023645,0.0244023,0.1899482,-0.6306395,0.4854372,0.0049552,-0.8261645,0.1204666,1.0527239,-0.3251293,0.3051938,0.2973889,0.5571315,-0.3806065,-0.3894637,-0.4398928,0.4306436,0.1906572,0.5664805,0.6654001,0.3834237,0.0263765,-0.0483969,0.2585128,0.2077222,0.4491083,0.6243597,0.0173416,-0.5194771,0.0768085,0.5568147,0.0189066,0.6122746,-0.3398741,-0.8001513,-0.2369886,-0.2631508,0.5836732,-0.0148902,0.2215295,0.3583237,-0.1749793,-0.2795479,0.4758704,-0.1053247,0.0031001
-0.0046619,-0.3288647,0.8373265,0.5504390,-0.0203004,0.7274116,0.3396663,0.5796738,0.7953401,0.8021578,0.2828784,-0.5544804,-0.1399299,-0.1988527,4.5458536,0.1124111,-0.5402136,0.9449351,1.5222266,0.5665359,0.3134496,0.2101537,0.3584675,2.6372206,0.8427257,-0.1996785,0.1943109,0.0107025,0.3727842,-0.4064897,0.1835546,-0.6245590,0.0783808,0.0269329,-0.4160630,-0.2406107,0.8740523,0.5020057,0.0203527,0.7831870,0.8274484,0.1498158,-0.2459616,0.5029935,0.3720313,0.7333988,-0.0190855,-0.3274047,0.3443325,0.3408478,0.7817308,0.2893598,0.5135685,0.1313319,0.5793312,0.2930841,0.4209546,2.5076311,0.1422402,-0.3356459,0.1030178,-0.0370498,0.5682911,0.5418577,1.4464222,0.1300059,0.1310770,0.7919929,-0.8893815,0.1562271,-0.0975756,0.4527858,-0.1077765,0.5349668,0.0378692,0.2907115,0.5385220,0.7225632,1.7736866,5.1511345,0.6547725,0.0796163,-0.0097973,1.5105869,0.6127293,0.3420407,0.3310533,-0.3316751,-0.0225740,1.2266916,1.1235533,0.2290124,-0.1676871,0.0141429,0.1264889,0.2367074,-0.6430365,0.3008436,-0.2966458,-0.5512472,0.4929453,1.6768069,0.4000387,-0.0416295,0.8301386,-0.1402313,0.1990373,0.4384619,0.1541013,0.4095788,0.6340205,-0.2483650,3.3282397,0.5178677,-0.3136087,0.4123613,-0.3101597,0.7157966,1.3791596,0.8462648,0.1327960,0.0700342,0.6000116,-0.0285416,0.2442155,-0.1225805,-0.2144278,-0.2500761,0.2726335,0.4376215,-0.3941128,0.3645597,0.1125110,0.4477519,0.6198756,1.0382253,0.7651132,0.2950727,-0.6694904,-0.0057720,-0.6071025,0.7358525,0.6760274,-0.0530535,-0.0581418,-0.2722994,0.4355808,0.8031517,1.4146808,-0.3432478,-0.2329651,-0.9628967,0.2823201,-0.0359518,0.7065480,0.3384185,0.8065518,0.2301916,0.3765709,0.0279320,0.4382210,0.3480603,0.6806468,0.6582628,0.0948060,0.3592829,0.6891213,0.7375496,0.0168860,-0.3284647,-0.0229578,-0.0433654,3.1460159,-0.3110770,0.6747515,0.8071492,1.8615073,0.3859914,0.0197723,0.8319990,0.8907980,-0.5682737,2.5917470,-0.4446750,0.7086219,0.2012765,0.4252602,0.7998472,0.2003993,0.4804471,-0.7675993,-0.2026145,1.3800278,1.7074609,1.0333253,1.3936403,1.0722487,0.9355668,-0.3687648,-0.3732138,0.4545640,3.4010179,0.6023603,0.8890325,0.4757132,-0.1224089,0.4832646,0.8107163,-0.0274968,0.5031596,0.6212761,0.5905555,0.5596703,1.3005967,0.2314350,0.1126471,0.6647042,0.2678420,-0.5834146,0.5986273,1.1401296,-0.0053913,0.5201454,0.6528777,0.4392944,0.5729234,0.0231451,0.3084068,0.2143303,-0.4406903,0.3087819,0.6641611,0.1692777,-0.5499564,1.5881394,0.1410653,0.5782327,0.5517657,0.7300022,0.4996914,0.0125663,0.8809838,0.3148285,-0.3107619,0.7383283,-0.4768385,1.6738787,1.2011802,1.0629570,0.1191863,-0.5029675,-0.0967361,0.4347129,0.1974344,0.5044473,0.4201103,0.5715489,0.2230869,0.5567164,0.4385974,0.4406801,-0.2669418,-0.9174817,-0.1643271,0.6723723,0.1934111,0.0169561,0.8212777,0.6645984,0.4495218,-0.3408968,-0.1718036,-0.0660138,-0.4860633,-0.0585921,0.4395410,1.2255534,0.2701328,0.7739481,0.8376644,-0.1702489,0.3531361,0.4181994,3.1260173,0.0616596,1.0280769,0.8081146,-0.0285721,2.2344031,2.0107183,0.4875452,0.3980674,-0.1008585,0.3654446,-0.2227067,1.1143482,0.5165038,0.2424095,0.2522114,-0.4269857,-0.1666785,0.3110892,0.5969191,0.3998345,-0.1212989,0.5824452,-0.4540930,-0.3168111,1.0625411,0.2292306,0.1974088,0.5487437,-0.2966414,0.5682661,0.7008884,0.4335894,0.1602130,0.2758667,-0.7384771,0.6675747,-0.0618405,-1.2014393,0.3898937,1.8902316,0.6304341,1.1178677,0.5668686,-0.3244881,2.2804098,-0.0770072,0.7495752,0.4536986,-0.1568472,0.2304555,3.0218277,-0.6201873,-0.0777081,-0.5976461,0.1491483,-0.0211221,-0.1930727,0.6237298,-0.1726512,0.7536986,-0.1692809,0.4310348,-0.4106619,0.4781320,-0.2810153,1.2401208,0.0004739,0.2308732,2.5792844,0.4367230,-0.2210194,0.5395724,-0.2616575,0.3937060,0.2657773,0.8276353,0.0776484,0.4711007,-0.0725783,-0.5460565,0.6036564,1.0153806,0.5983106,0.1179209,0.1543650,0.5867998,0.3653196,1.1255670,-0.2153610,0.9708696,0.9356532,0.2640477,0.3736835,0.7120426,-0.3244064,-0.0522568,0.4078263,0.4084738,1.6362892,-0.1155921,0.5254223,0.2149438,0.9574590,0.7195075,0.0543340,-0.4281616,-0.1834073,0.8048936,0.0923484,-0.1738134,0.4690560,-0.1193445,0.7163759,-0.4717448,0.6695725,0.8000354,0.4314958,1.0293459,0.0467118,0.4494891,0.5565788,3.4031284,0.4750074,0.0667370,0.6129836,0.7813594,-0.1732010,-0.4311819,-0.0599330,0.4641456,0.2645642,0.0382957,0.2430004,0.1911900,0.7704342,-0.5632867,-0.7397365,-0.2605838,4.3867216,0.5283613,0.3215013,-0.2104879,-0.1803789,0.5392626,0.6129825,-1.1113200,0.9191896,0.2594911,0.1425073,1.3617114,0.2067793,0.5473436,0.7468935,0.6306579,0.0772339,1.4926171,5.1231823,0.6410074,0.3933310,0.8575360,-0.7108530,0.8612880,0.6655743,0.3363108,-0.3269915,0.6752880,-0.7343468,-0.4638499,0.0721105,0.4031049,-0.0724300,-0.5746956,0.3152998,0.3700142,-0.3724577,0.8310501,-0.0588153,5.1074901,3.1951764,0.2774466,0.8881530,0.3069755,-0.0872920,0.3126600,1.1349057,0.8920977,0.3590294,0.0105795,1.1103594,0.0686249,-0.0447807,0.1638728,-0.6019846,1.6603240,0.6987664,-0.2259579,-0.3789690,-0.1289485,0.2840318,0.6382991,-0.0257556,0.5761849,0.7654558,-0.0104507,0.7208191,-0.2996476,3.2225237,-0.0736922,0.6119489,0.1921540,0.2315113,2.4935467,0.3713909,0.6804879,0.4665268,-0.2561359,0.4299127,0.4749823,0.3623275,0.7666814,-0.0390507,0.0170151,0.7398260,0.2251603,-0.1852297,0.0067404,0.2504745,0.6123019,-0.1044748,1.0547721,0.3916454,-0.2151588,0.8210430,-0.2496937,0.8819861,0.9837806,0.1948038,0.0620153,-0.2861572,-0.4424305,-0.5678047,0.5732552,-0.0674677,0.0349569,0.0688560,-0.3489583,0.5821415,0.5487357,0.0064976,0.5360243,-0.0247449,0.1515005,-0.3315486,1.1687675,0.6675497,-0.0186487,-0.1357397,-0.2523433,0.6687815,0.8468348,0.2355894,-0.3047257,-0.2788290,0.1820436,0.2711204,-0.0730533,0.3964634,0.5014731,-0.2612098,0.7001026,0.2074476,-0.2464279,-0.0672391,0.4040700,0.6468714,-0.0944898,1.7965657,1.0227251,0.0738892,-0.2256467,0.2515915,1.4898472,0.1586305,0.6875176,0.4141162,-0.5196120,0.9971582,-0.6734349,1.0236492,-0.2580769,-0.1486048,0.6200773,0.7662768,0.5036899,-0.2960705,0.0466587,-0.2338770,0.0157797,-0.4993884,0.8084630,-0.0401564,0.3423080,0.2174591,0.9695645,0.4711931,0.9595993,0.0241957,0.1096069,0.1449931,-0.0959705,0.9555503,-0.3548814,-0.6356530,0.4588337,1.1097581,-0.2041781,0.4670507,-0.1507084,-0.1638218,-0.0697459,-0.5593763,0.2315812,0.4106620,0.7992300,-0.4606761,0.5046557,0.3843651,6.1281276,0.7828978,-0.3994722,1.7026247,0.6184832,0.1146691,4.5752039,-0.1869171,3.8977458,0.3685963,-0.3008539,0.1872695,0.0596538,0.4857101,-0.0227149,-0.2375250,1.5527253,0.2979558,-0.0029215,0.8650661,-0.1568836,0.0389622,-0.3780168,-0.1804532,0.1544730,-0.4385548,-0.6730928,-0.0254271,0.6567145,0.1101811,0.5887077,0.2306711,0.9066359,1.2968093,0.6605141,-0.0572138,-0.2326595,-0.3084731,-0.5105365,0.1663248,0.5748916,-0.0085054,0.3924602,2.5966728,0.4429536,0.9567046,0.2305582,0.6075166,0.7174543,0.5424180,0.2331520,0.5236164,0.8098136,-0.5060506,0.6107868,0.1477425,-0.1288302,0.3209029,-0.3127101,0.3117321,-0.1007676,0.2966963,-0.1237631,0.5832357,1.0858815,0.6854723,-0.3724622,-0.1887226,-0.2327660,-0.0833939,0.1254493,0.1079449,-0.1090921,0.2533329,0.6138661,0.4789999,-0.1599720,0.4662224,0.1672764,1.3468047,0.2106099,0.3852614,0.0428859,0.6212161,-0.4923156,0.6088189,-0.2933302,0.8812121,1.4422272,0.5098909,0.5324103,0.6216151,-0.4188794,0.4562047,-0.5404903,0.2771206,0.5113887,0.3214720,-0.3987839,-0.1638482,0.5790864,-0.1230014,0.4342821,0.2401079,0.1837626,0.4160770,-0.1515984,0.5680493,0.4885821,0.4472241,0.3507288,0.0877349,-0.3732696,1.2661694,0.5549282,0.9042121,0.7393642,0.0492148,1.1031258,-0.3339860,1.4495903,0.5007374,0.8357930,1.0567074,0.8834599,0.1473390,0.2551812,-0.4406129,0.1449447,0.9104580,0.6037596,0.4322428,0.5707698,0.5861862,0.0786315,0.5426632,0.4254059,0.8974537,0.6104413,0.8537062,0.3668482,-0.2455968,0.4612447,0.0700067,6.1670051,0.1641607,-0.3540558,0.4621675,1.9819438,1.2346920,1.0973932,0.1347277,-1.5854899,0.1037045,0.7592725,0.6907960,0.1407122,0.0165103,-0.7111496,-0.2066275,0.5016174,0.5480406,-0.0248905,0.5529975,0.6494583,0.6004276,0.6162754,-0.3975706,1.2193542,0.6597039,0.8414423,-0.5939883,1.4364849,-0.5413313,-0.4116827,0.6834633,-0.5732897,0.5843266,0.3440977,2.8674984,0.4642989,0.2985989,0.7149512,4.9601908,0.0677655,-0.0352770,0.5129736,0.3599254,0.2028792,0.3325784,-0.0569996,-0.0390087,0.6964233,0.3810515,0.0525884,-0.6287303,-0.1977660,-0.0474134,0.7173783,0.5647349,0.7690185,0.3708558,-0.4574814,0.7598642,0.7068185,0.6172976,1.1584260,0.6472952,0.6313763,0.5407295,0.5504290,0.5128796,0.5794661,0.0989799,-0.0049489,-0.5261149,0.4992993,0.3470969,-0.0964584,1.3122296,-0.1358346,0.4335415,0.4705498,-0.3346532,0.9553558,-0.3068508,0.3591528,-0.1413327,0.3790209,0.4892856,0.5955762,0.3902161,1.2166326,-0.3151581,0.6866863,0.0407425,0.4723894,-0.1409557,0.1198541,1.1476500,-0.1760883,-0.0810711,0.4743865,0.4740580,1.2245688,0.9384322,0.9089497,0.8799601,0.5237247,0.5266635,0.5514544,0.5844856,1.3021150,-0.4061902,0.5848064,1.0765913,0.1838460,0.7522429,0.5807636,0.8320416,-0.2148426,-0.2951541,0.3896680,-0.1401455,0.2163914,1.2687124,0.2277895,0.3077832,0.7946995,0.1649019,0.6535157,0.2324199,0.6553160,-0.1713551,0.7805164,-0.3865441,0.2031976,1.1966542,1.0302967,1.2049965,0.4474590,0.7549490,0.4397539,0.0756381,-0.3872307,0.5630908,0.6653915,0.4984191,2.9086308,0.3777210,0.5483752,0.4033809,-0.2756539,0.3264967,0.1428673,1.1850723,-0.2384977,0.3053552,0.0421081,0.0117087,0.6338710,0.4752775,0.8797299,0.4290324,0.3216763,0.3516470,-0.2101842,0.5177441,0.0180315,0.9652860,0.6557607,0.5444650,0.6741453,1.3371798,0.1805686,0.6361710,0.0624634,0.1807365,0.4932031,1.0706441,-0.1767943,0.2922316,0.0322624,-0.6809941,0.4776118,-0.5246988,0.5398937,0.3298322,0.2657320,0.9777852,0.6282279,-0.0427592,0.3498009,0.4248197,0.4441428,0.3553427,0.0268625,-0.4194072,0.9871286,0.2127172,0.5481079,-0.1445413,0.2549457,2.9047933,0.0040160,0.7279757,0.8446927,0.5123299,0.3275438,0.0576842,0.7294692,0.1733682,1.5398884,0.9402956,1.1388324,0.5737298,0.3425451,0.1003205,0.2220420,0.6551484,1.5399561,-0.5285847,0.7160406,0.3291158,0.5771841,0.5756330,-0.2165145,0.5400261,0.5574208,-0.1643703,0.4423740,0.4846181,-0.7153332,-0.3597853,0.2956044,3.3326852,-0.1546459,1.2832823,0.5354299,-0.1986222,0.4397134,1.4293190,0.1204233,0.5995931,0.3668142,-0.3524900,0.3770514,0.2754790,0.3182755,0.4104154,1.2855361,0.3552748,0.4291482,0.7096244,0.4858254,2.5586841,0.6917787,1.8629398,0.7321100,-0.0888065,0.0303195,0.2637209,-0.2356675,1.1323301,0.6865819,-0.3218525,0.1685060,0.2545058,-0.3789650,-0.3438307,-0.3333964,2.7737811,1.4127890,0.8731321,0.3971708,0.1738377,0.5695549,-0.1336757,0.2584473,-0.1202995,0.7852788,0.4101984,0.1855935,4.4863100,-0.3841208,0.7016345,-0.1344450,0.2110131,0.0933062,-0.1701757,2.8704171,0.7768989,-1.1204165,-0.4666285,0.8295395,2.3910756,1.0528145,-0.6519192,0.7172287,3.2677119,0.4851954,0.7278911,-0.4797457,-0.3818727,-0.0254979,0.6227128,0.4348576,0.8038632,0.7204506,0.0053965,0.1660837,0.8330586,-0.0745919,0.3030712,0.6344252,0.8698733,0.1037391,0.1748928,3.7947657,0.2866307,-0.0259020,-0.2960978,0.5072520,0.7623578,0.7685065,0.5212243,1.1989228,-0.2310049,2.0667949,-0.0501245,1.0181676,0.8400319,1.5719957,-1.2620132,0.8643940,0.8720031,0.8023120,-0.0215095,0.0040398,-0.2085211,0.2390422,0.8526497,0.5192238,0.6012523,-0.5355436,1.5013273,0.3359229,1.0909737,0.1064905,-0.4286117,-0.3936943,0.4548732,-0.0771640,0.5061096,0.5480353,0.1402997,0.8823301,-0.1360258,0.7796236,1.0955331,0.5480061,0.1925264,0.3750117,0.5244767,0.2923744,0.6748474,-0.3300428,0.1566456,0.4261771,0.6400759,-0.1442574,1.0045669,0.2726733,0.4863751,1.1743340,1.0135777,1.8131108,0.1651272,0.3175869,0.3085945,0.5221279,0.4092906,0.6052840,0.2079870,-0.2335535,0.6444160,1.0526184,0.2814284,0.4166311,1.7100611,0.1099545,-0.3612030,0.0761503,0.1243981,0.5733220,-0.5073959,0.5954007,3.5901082,0.3310682,0.5054564,0.0338944,1.2903693,0.1835509,0.0463160,-0.1872445,2.1062920,0.4841145,-0.1359503,-0.2341052,0.0067912,-0.0896872,-0.1733593,-0.0502932,-0.2067285,-0.2376119,0.4087409,0.4803140,0.2628849,0.4548330,1.1640310,-0.2725569,-0.0248390,-0.2926696,-0.0966249,0.4233529,0.8635923,-0.3016602,2.6565225,0.4255835,-0.0125353,-0.2430272,0.7194463,-0.2764086,0.1719293,0.3726563,-0.4177728,0.5576787,0.2741121,0.3467178,0.4591651,-0.1594402,5.2365990,0.8371437,0.2377269,0.6179736,0.7275212,0.4608516,0.3645599,-0.0003068,-0.3032276,-0.2943490,0.4532318,0.4202240,-0.1441655,0.6726531,-0.1446547,0.6855384,0.7921059,0.4350676,0.0820611,1.4237841,0.7110870,0.4581119,0.5812228,0.3151172,-0.3261515,-0.2701522,0.2835554,-0.9379163,0.2275252,0.4585299,0.4447360,0.2057049,0.4349481,0.8326321,0.9644754,0.5780885,0.5387632,-0.1346120,0.8042728,0.4370646,1.8584342,-0.0121975,0.4895333,0.0053309,-0.4237535,0.8192827,-0.0456811,-0.3985911,0.9418135,0.3667363,0.9307429,0.2011477,0.4943226,1.1281128,2.0579228,0.4468664,0.9150403,0.3457977,0.3672119,1.1673837,0.5491952,1.2784514,1.6576235,-0.1759676,0.3198134,-0.4534591,0.6087244,-0.2370575,0.6124876,0.7197945,0.1537625,1.1672333,0.4701152,0.2833709,-0.3207262,1.2118003,0.0537147,0.2521343,0.3111730,-0.2071465,-0.3254636,-0.1047887,0.0893993,0.8191277,0.4410348,1.1729679,0.7877831,0.1702480,-0.4429185,0.4233747,-0.0893050,-0.1524836,0.7579715,-0.2371687,-0.1341122,0.5395229,0.5742209,0.4895816,0.1523427,0.2371312,1.0604017,2.5733073,-0.2793223,0.4834849,0.5611357,-0.4394266,-0.0245350,0.3604420,-0.7749718,-0.2603920,0.1245397,-0.7717282,-0.5311728,-0.4509144,0.3417361,-0.3369747,0.5274545,-0.0570017,0.1911556,0.7002355,0.5641466,0.4639095,-0.3396142,0.4514577,0.1739686,0.4777289,0.9556807,0.7204678,0.4919316,-0.0806565,6.1865826,0.3262224,0.7934771,0.1299245,0.6207019,0.2479301,0.2100158,-0.0072168,-0.3674586,-0.1318973,0.1245462,0.5970422,1.6505347,0.8956648,-0.2972883,-0.2565727,0.2088760,0.5882326,0.3648123,1.0868981,0.2969333,1.0143347,0.2695092,0.7519584,0.3529303,-0.1527722,0.6272398,0.1092635,0.4696006,0.1820087,-0.0543579,0.3707577,0.4024404,0.3095626,0.5470884,-0.3908754,-0.3164279,0.4314870,0.3705764,0.3046763,0.2702996,0.3489198,-0.1174176,0.4590094,0.1381612,-0.6610085,2.3211470,-0.0983090,-0.4528578,-0.1831738,0.9801323,-0.3750080,-0.1550209,0.5943834,-0.1728505,0.5762772,1.1335757,0.2501204,0.3815079,-0.0166467,-0.3950344,0.4383178,0.3952311,0.6481982,0.6827533,-0.2113919,-0.0156494,-0.0010904,0.5420139,-0.0654411,0.3290699,0.6545676,0.6992868,0.5654050,-0.3685100,0.4284413,0.4269724,0.5734828,0.3927139,0.5515013,3.3233645,0.6508744,0.7564318,0.5818368,-0.0490739,0.3270655,0.2916149,0.6177896,-0.0250010,-0.7218556,1.6207681,0.2881012,-0.0961557,0.5764326,-0.2312038,0.1355313,1.0996895,0.1310024,-0.7021418,1.9437598,0.7380759,0.7368779,0.2474999,0.7460406,-0.6213710,5.4015260,0.7890741,0.1097255,0.3079146,-0.5950051,0.6150231,0.0840233,-0.7980373,0.2191314,1.3299545,-0.2668912,0.4304574,0.4226425,0.7195488,-0.3311654,-0.3435278,-0.3925163,0.5705463,0.2644115,0.7350979,0.8476291,0.4771006,0.1210599,0.0372035,0.3824897,0.3210468,0.6096325,0.7670358,0.1087831,-0.4793359,0.1777545,0.7228197,0.1046733,0.7048229,-0.2837971,-0.7808383,-0.1745427,-0.2043114,0.7406582,0.0685555,0.3347676,0.4897429,-0.1149304,-0.2279370,0.6326453,-0.0674142,0.0858770
