159,277,323,269,67,254,75,251,293,250,257,160,212,292,232,89,222,202,313,256,110,72,166,295,180,116,150,218,71,159,167,150,105,99,108,340,159,145,246,278,332,161,338,209,239,254,179,123,243,237,316,190,357,397,150,131,159,138,61,96,150,124,255,228,79,117,173,291,68,242,204,279,65,99,112,200,321,114,226,239,243,143,61,344,98,157,195,174,106,372,176,122,330,131,78,248,237,178,163,78,197,335,201,119,232,388,118,91,71,168,121,112,216,213,157,306,229,293,291,99,100,303,142,155,152,103,161,65,357,95,277,260,86,114,243,265,104,87,260,136,224,369,232,100,191,255,238,200,437,122,187,127,183,675,501,132,335,211,80,60,147,222,334,151,265,786,268,213,155,131,143,120,148,229,234,256,267,315,231,148,346,97,325,102,441,138,148,250,107,63,96,71,264,247,387,141,369,300,262,255,200,683,234,308,260,124,116,269,85,216,241,164,251,365,154,191,102,270,104,291,157,203,128,190,177,99,253,282,214,96,264,228,187,177,154,193,111,272,297,122,608,286,91,167,241,240,282,338,357,125,150,82,203,94,75,296,214,98,256,105,348,160,119,279,281,166,192,310,77,66,70,207,152,110,256,234,297,115,166,214,87,281,225,161,126,415,136,187,70,121,268,172,112,63,309,324,178,88,87,116,167,102,326,176,62,240,209,166,325,182,229,151,70,221,219,72,72,227,80,201,158,111,134,98,343,137,97,85,235,176,148,235,63,134,328,61,200,166,98,126,362,166,119,135,313,142,603,184,246,315,140,259,151,177,176,194,102,69,147,340,95,250,92,252,203,339,428,232,69,163,275,244,103,94,207,202,159,288,214,258,153,203,275,264,170,82,163,321,85,234,108,63,134,112,216,78,85,149,66,240,251,259,340,216,81,153,259,64,249,332,81,143,334,288,230,110,226,97,115,230,191,139,232,377,191,174,197,190,254,156,168,143,188,86,95,84,79,89,97,261,448,188,154,174,215,199,224,263,222,238,68,113,79,109,198,115,271,288,196,157,106,566,208,342,295,265,148,237,304,336,227,176,362,206,88,68,156,133,317,338,120,93,62,289,110,105,264,206,63,290,296,175,116,176,89,253,111,275,224,87,139,211,175,125,111,83,308,91,61,208,121,250,110,75,143,174,289,281,345,79,204,73,239,322,97,228,153,77,166,181,67,448,83,179,209,77,176,405,245,224,260,108,244,160,69,204,213,77,243,155,120,95,300,269,84,337,269,88,194,102,157,180,91,205,282,215,186,162,192,129,176,169,122,98,84,139,115,100,78,136,143,149,231,304,151,79,83,239,274,398,136,187,246,234,241,295,90,97,370,217,94,110,164,160,190,88,74,99,135,248,189,376,204,62,77,251,83,79,141,159,209,210,105,69,242,286,138,81,90,180,246,161,176,61,286,189,125,233,181,184,319,416,71,184,303,244,143,255,148,123,68,264,71,225,279,193,150,298,418,177,141,291,224,246,88,291,256,99,156,132,107,186,221,194,143,431,473,153,67,79,62,89,98,86,108,255,110,180,82,97,71,74,237,137,143,262,210,142,272,271,254,257,133,144,190,71,271,98,222,230,366,198,348,281,136,153,188,155,170,187,183,129,91,262,383,248,331,277,88,132,234,284,254,371,266,205,156,154,131,195,317,207,151,232,295,143,322,254,166,82,167,180,82,101,249,291,292,73,152,180,386,149,240,103,179,176,190,71,110,113,65,183,318,198,224,322,209,264,249,126,224,351,174,383,216,80,348,203,190,155,110,295,252,304,314,148,64,272,86,102,164,134,122,105,92,124,232,100,197,306,283,154,68,183,300,422,193,105,211,119,299,84,362,234,163,384,217,145,75,109,74,277,83,215,124,231,163,158,220,302,164,74,196,491,86,359,199,133,286,445,339,131,202,219,159,147,361,301,60,91,219,233,155,420,151,146,179,135,300,313,324,80,185,72,138,113,321,177,72,294,126,200,226,150,179,123,227,273,366,305,274,69,320,298,155,88,196,122,229,427,142,112,230,298,66,67,319,229,131,72,203,273,294,125,83,199,61,62,254,167,296,291,318,313,246,150,287,231,143,216,469,158,92,157,106,529,186,332,185,173,247,107,74,67,131,203,196,61,114,88,274,268,166,128,445,111,225,320,97,123,88,182,169,194,243,342,133,186,73,280,213,503,198,198,266,81,342,99,199,230,128,223,132,105,75,227,387,227,355,261,166,174,416,240,350,237,361,213,70,274,109,394,141,233,198,278,214,263,326,277,341,283,196,143,347,310,180,270,173,222,190,151,72,251,258,96,104,92,70,109,258,356,72,133,240,101,141,73,223,226,363,295,282,95,93,167,71,388,241,186,108,290,218,160,120,194,195,125,143,397,206,298,300,69,183,170,247,185,204,690,73,135,202,202,256,336,114,312,98,111,197,341,270,460,188,184,300,283,219,177,102,112,330,178,226,124,91,170,204,150,149,128,252,72,189,106,227,66,280,159,64,160,199,339,273,178,417,306,172,186,281,101,311,164,74,411,89,100,187,99,182,65,174,241,275,180,127,298,242,125,188,96,69,175,249,109,77,158,388,103,216,67,118,136,163,181,114,193,156,308,150,121,61,182,115,198,134,150,64,192,259,184,207,217,68,145,136,94,303,169,159,180,71,308,127,327,94,85,159,78,248,88,130,175,192,235,300,121,104,188,262,251,126,75,100,80,136,250,194,68,91,415,194,295,128,459,159,151,81,110,72,280,149,125,226,213,385,252,166,130,297,67,140,139,228,122,237,225,138,265,249,82,209,156,137,282,115,207,341,249,129,265,105,165,105,163,221,219,70,190,214,370,72,226,64,288,162,89,164,65,171,141,95,86,228,287,130,393,110,151,210,248,99,304,342,167,149,196,297,168,75,275,387,168,250,104,79,98,228,170,179,292,123,169,105,121,122,435,434,158,302,217,110,126,97,137,195,68,319,361,305,77,359,75,407,71,252,254,133,179,128,74,232,179,332,328,128,133,275,67,166,112,152,95,84,253,129,142,97,92,267,294,114,251,74,280,159,65,201,280,181,242,122,295,86,257,193,61,111,154,110,135,341,82,302,102,63,222,66,177,210,207,124,192,97,166,147,96,99,218,165,184,77,271,150,97,159,152,192,96,247,77,177,226,527,173,155,232,128,262,197,147,60,216,249,226,179,167,101,204,125,141,369,251,209,341,128,349,106,239,146,74,131,206,119,241,149,268,237,133,198,123,85,245,285,186,216,208,303,66,369,125,168,60,297,97,205,150,213,169,321,157,127,75,126,214,370,294,279,269,255,124,83,230
341,462,661,537,241,538,310,522,657,473,483,350,517,573,604,277,480,576,760,570,317,300,411,628,444,342,381,394,343,398,500,324,296,303,345,613,510,420,584,466,634,333,613,449,471,562,342,296,509,467,619,328,528,574,442,376,446,421,165,348,339,299,518,542,297,329,329,577,265,463,376,538,241,393,343,414,500,394,498,534,529,347,233,612,393,395,423,343,272,673,792,335,646,307,287,458,366,394,291,176,449,661,429,361,562,735,414,407,292,423,415,340,475,527,284,566,484,587,676,348,307,469,452,315,265,401,383,265,665,352,515,500,323,396,515,620,432,323,377,321,401,709,522,265,359,552,506,415,839,354,454,265,405,756,724,293,677,364,329,265,438,452,618,451,651,913,561,287,213,356,334,297,342,465,469,635,763,582,407,403,677,191,702,328,636,334,456,568,354,324,256,245,698,504,777,527,714,570,396,495,327,759,508,642,598,441,477,585,285,473,519,448,522,746,418,387,460,442,294,446,537,393,411,499,437,254,669,539,428,378,490,436,334,368,286,447,204,545,557,390,979,601,342,424,538,446,463,493,701,326,264,382,453,350,396,435,497,324,538,364,486,337,233,594,590,404,602,581,365,341,348,488,318,337,622,464,662,415,540,560,245,526,477,315,355,737,457,361,241,424,514,428,345,417,579,663,314,317,328,353,457,339,625,438,231,554,420,497,681,411,388,423,340,460,517,335,154,409,251,461,317,224,394,502,629,512,380,219,605,346,355,528,213,350,497,233,374,362,308,320,651,456,333,452,611,392,1195,449,527,401,339,386,394,420,317,461,355,348,366,652,294,498,350,448,479,646,752,420,216,440,508,594,314,278,541,512,300,600,456,642,401,441,550,578,447,302,508,451,315,494,327,357,335,279,425,216,579,376,378,538,456,627,689,432,386,494,521,279,513,627,239,365,677,529,447,297,429,320,489,445,523,247,672,629,364,402,427,452,540,286,390,341,358,627,332,340,394,483,253,639,841,493,406,482,384,443,491,413,473,524,212,344,290,224,364,310,498,511,447,468,171,896,461,544,614,490,556,386,658,637,472,345,715,403,258,218,356,394,611,617,372,263,319,443,284,265,467,386,371,561,576,331,515,329,316,509,286,597,346,275,378,456,438,427,451,205,651,311,201,373,248,518,255,441,405,311,589,565,625,444,397,354,508,586,335,579,324,257,336,308,373,682,266,441,373,259,437,768,572,387,498,193,556,490,351,378,422,301,456,269,379,428,584,406,310,601,483,315,460,443,560,434,262,485,355,635,382,401,446,322,340,353,472,230,247,417,436,346,307,314,269,414,418,606,325,379,298,528,554,638,286,389,436,475,582,566,177,366,619,557,261,266,304,330,377,301,327,407,365,507,415,749,565,276,380,417,290,443,266,498,442,469,416,264,501,510,397,214,321,347,620,306,351,178,587,381,233,414,358,390,481,916,315,526,575,561,307,566,400,228,222,547,274,449,506,471,543,447,602,515,312,625,436,557,345,582,481,315,365,405,366,511,449,342,538,761,766,268,525,327,225,285,397,507,310,477,377,326,348,308,293,293,605,218,441,443,295,299,545,326,500,513,437,375,421,267,535,364,471,471,676,508,618,590,353,356,466,468,452,457,336,359,284,528,749,494,669,599,290,502,489,695,526,731,660,500,352,268,369,377,595,469,414,518,495,389,519,493,483,362,479,362,220,376,451,700,648,343,437,595,738,511,474,209,346,485,487,342,291,197,220,507,577,361,454,606,440,520,473,545,293,657,332,769,344,195,596,394,366,327,443,538,429,691,659,335,324,595,361,369,349,302,351,397,258,402,411,244,355,598,580,469,625,420,430,695,561,395,511,406,541,374,705,482,361,716,419,284,335,429,461,558,269,514,249,567,427,410,545,492,397,453,436,753,408,435,572,390,532,795,700,265,406,460,371,534,704,633,352,283,506,502,454,826,262,423,559,343,578,592,638,354,356,354,293,322,693,395,243,580,212,499,449,382,405,585,423,487,694,594,626,342,586,550,330,317,409,409,556,612,407,225,481,551,315,328,714,403,271,307,383,520,547,508,334,431,234,434,520,363,633,553,592,599,501,326,544,409,340,472,620,270,340,348,286,767,386,624,398,395,590,415,325,321,374,414,445,189,432,449,524,539,439,339,813,294,520,611,360,372,269,475,433,406,572,687,418,447,189,356,350,942,333,535,536,384,487,540,488,501,380,368,378,288,323,487,765,342,736,497,318,436,838,525,709,473,590,454,538,490,291,781,343,493,923,574,592,554,803,542,692,528,387,404,704,604,307,482,439,460,465,230,304,716,570,276,313,337,255,301,517,665,336,326,433,398,444,229,622,322,667,674,569,246,264,482,409,768,427,494,380,563,523,267,370,462,342,368,374,770,428,569,607,323,424,438,567,379,444,1340,331,299,519,456,604,665,384,714,404,259,354,666,633,917,300,540,619,580,376,344,237,348,650,461,498,327,460,429,564,343,282,378,513,246,458,506,530,414,580,352,445,441,501,624,532,408,616,505,378,429,565,208,636,396,365,829,445,611,395,302,411,376,459,508,473,314,452,665,424,386,322,333,312,365,447,385,155,447,452,324,468,295,606,258,440,317,396,497,326,592,313,272,203,347,257,310,351,401,334,446,410,456,367,475,236,390,464,240,556,414,326,312,404,534,271,475,268,321,365,300,502,235,571,502,494,532,611,408,357,357,524,505,388,347,188,403,251,517,462,311,275,799,512,568,207,680,405,287,398,246,320,520,414,401,410,543,611,537,438,276,563,331,479,318,483,289,480,433,302,495,584,242,563,392,328,644,361,443,661,477,367,559,382,614,332,480,466,403,291,665,279,633,320,515,346,433,283,449,347,303,400,247,347,407,399,593,383,769,339,365,435,500,248,616,660,298,298,461,559,424,164,507,760,505,534,378,373,325,469,351,341,552,317,329,297,494,388,687,652,400,706,507,327,399,467,392,423,368,616,602,560,251,645,315,722,193,596,483,353,348,346,289,436,455,706,680,385,432,500,404,411,508,381,354,305,582,402,340,408,392,527,427,276,494,156,496,441,272,463,520,417,478,456,578,230,528,330,233,496,309,323,535,657,313,605,390,173,511,481,400,438,454,368,354,361,459,324,150,236,398,446,341,325,577,458,390,380,430,486,424,499,411,444,528,812,538,312,442,373,559,363,343,336,380,375,512,385,287,502,397,294,407,702,564,385,561,310,624,444,435,372,270,407,376,274,374,540,461,470,370,498,354,316,465,571,426,502,518,461,293,752,368,393,348,582,295,417,359,519,365,610,455,238,232,269,474,734,521,543,529,599,413,338,409
518,780,882,796,416,854,556,795,1014,703,707,539,815,846,1003,466,630,949,1177,886,601,528,656,976,814,567,520,569,602,648,653,493,491,506,581,895,789,696,919,805,922,571,888,693,705,868,506,470,770,699,927,468,874,740,633,599,719,739,250,597,531,474,784,854,602,539,484,872,425,688,548,794,451,698,579,631,820,712,760,826,662,551,406,872,690,632,650,519,439,1054,1037,554,871,483,496,694,607,626,418,276,704,986,659,671,883,1076,707,598,516,684,710,566,715,757,412,715,741,891,1060,595,432,634,766,477,626,691,611,593,973,606,752,742,563,579,796,797,759,559,614,507,581,1022,810,432,526,860,752,821,1238,590,649,404,629,853,964,430,974,591,578,464,729,681,900,753,1031,914,857,635,361,580,526,473,537,702,701,925,1276,847,552,570,979,285,1046,554,834,669,710,894,584,557,415,418,1132,765,1044,692,1047,929,684,738,608,1064,785,982,952,811,812,900,485,744,716,728,794,1134,684,582,815,683,482,799,926,583,696,808,688,566,938,843,644,648,711,798,551,559,597,607,725,818,799,653,1143,922,585,682,832,657,700,827,1063,528,538,490,696,512,724,706,781,540,818,626,805,485,346,897,883,634,1046,855,657,612,632,797,482,570,995,691,1025,546,775,904,402,770,727,736,584,1085,780,532,413,718,763,679,577,662,846,1011,683,548,568,591,753,575,911,691,401,871,622,651,1038,640,580,689,610,697,820,447,335,730,422,735,477,336,657,650,909,884,663,352,1102,515,566,769,363,566,673,416,540,557,498,515,935,737,548,776,911,669,1720,714,806,713,540,679,560,676,458,729,492,549,583,962,527,747,518,650,756,863,905,606,608,716,738,933,525,460,849,698,577,919,698,1029,652,683,817,887,716,524,864,751,450,691,424,653,541,426,678,352,829,602,693,846,617,810,1034,711,691,818,781,492,775,918,396,588,1042,780,651,479,628,542,872,632,691,379,1075,793,606,633,649,719,825,416,682,597,570,1171,569,601,707,1036,374,1014,1211,743,654,808,553,956,805,685,736,699,354,583,507,424,527,507,718,733,700,787,237,1486,722,632,936,716,879,573,1013,941,719,517,1070,595,430,281,558,658,911,892,627,433,640,825,458,627,863,485,689,846,832,488,965,621,546,658,558,892,653,324,611,710,703,736,809,430,994,532,342,535,509,785,403,794,668,447,894,850,912,819,641,635,778,765,567,891,494,438,668,433,680,955,453,702,538,529,692,1140,886,549,747,279,855,822,587,486,754,529,670,386,674,740,868,749,536,863,574,569,734,801,1050,633,445,766,681,1082,580,766,704,516,506,543,810,363,410,697,752,600,649,491,393,681,620,917,498,541,516,804,876,1079,591,594,550,713,922,792,265,635,1122,785,613,421,443,498,564,519,588,727,600,773,648,1142,904,490,679,542,415,776,388,835,673,733,556,452,761,729,705,323,551,521,991,369,529,295,886,572,341,538,532,550,642,1395,442,874,838,831,472,822,679,332,373,830,473,672,738,754,937,731,969,869,601,921,658,864,498,876,639,535,609,676,629,771,679,491,730,1101,980,382,809,960,388,485,693,699,573,835,650,473,479,522,517,514,810,426,741,705,588,454,868,563,759,776,741,505,519,465,793,630,612,711,980,798,766,868,498,537,735,788,734,737,657,593,469,660,1116,753,1024,875,485,876,761,1102,798,1090,1022,860,546,572,605,584,898,728,672,825,687,654,772,730,805,652,791,542,357,645,655,1100,1001,605,740,950,1078,877,712,313,521,793,783,492,467,281,376,891,841,528,704,882,678,775,697,942,579,969,492,1155,626,310,847,584,725,545,782,783,653,1063,1020,519,507,919,634,636,674,473,579,694,572,681,590,388,516,889,742,751,789,660,630,997,852,699,815,694,788,664,851,966,559,1059,626,653,596,774,843,832,529,796,373,900,682,662,869,676,630,714,679,1288,669,666,971,650,954,1159,1063,399,605,708,894,912,1044,966,461,671,793,776,757,1195,374,702,929,629,855,867,942,629,498,603,449,531,1064,614,512,865,324,798,672,716,684,913,619,692,1037,875,990,608,863,805,468,529,624,691,887,845,662,536,735,806,564,566,1087,576,510,542,558,822,799,877,580,668,299,750,783,559,968,815,873,878,763,506,824,584,536,731,809,376,490,527,463,1004,583,935,611,576,937,718,547,572,615,626,694,363,577,689,773,808,696,552,1151,473,815,915,597,619,453,772,565,615,896,1047,712,703,423,543,651,1381,580,851,806,682,822,761,647,773,704,630,609,449,573,752,1148,460,1120,754,469,698,1259,660,1060,709,816,697,683,706,398,1170,639,760,1105,720,897,846,1291,826,1052,769,555,696,1064,896,434,691,637,704,733,370,541,1111,886,579,524,584,445,490,883,980,599,534,716,596,777,386,815,453,973,996,821,395,488,794,740,1148,572,794,654,829,778,375,621,728,750,649,810,1130,640,833,937,534,664,710,887,577,676,1979,545,464,679,724,957,970,654,1116,564,407,511,999,999,1354,412,895,964,879,558,517,374,581,969,745,768,526,823,686,899,538,430,633,774,420,727,787,878,669,777,542,836,711,635,808,797,636,924,704,584,691,849,355,962,642,652,1249,799,1117,604,638,637,641,747,775,665,451,756,1031,601,603,692,571,570,555,636,667,334,731,561,549,729,564,1062,537,706,450,666,787,437,879,474,417,345,511,396,436,614,653,609,704,809,741,529,744,405,640,808,360,810,667,492,444,739,772,415,785,573,638,572,526,761,385,975,833,802,822,965,656,611,526,787,843,650,614,279,728,459,823,759,557,485,1175,825,842,515,899,660,419,618,381,606,994,677,528,596,860,1001,822,711,423,855,592,815,503,738,464,721,670,477,725,889,459,927,612,596,991,605,678,982,703,605,853,672,1017,567,800,709,593,634,905,483,887,564,801,628,599,390,759,529,541,618,439,601,729,571,899,636,1139,568,586,656,749,405,919,980,428,451,731,818,696,340,733,1136,775,797,665,666,552,652,640,503,813,514,484,486,760,578,837,871,592,1102,793,547,572,733,643,678,655,762,1047,827,387,927,556,1035,503,667,709,573,516,571,500,586,758,1165,1036,645,750,574,722,652,903,612,614,536,900,669,502,721,641,787,682,438,729,238,700,605,522,721,752,656,614,720,716,377,798,458,405,787,466,375,761,986,550,906,676,350,693,872,667,662,698,615,726,632,755,664,238,493,576,726,500,573,911,766,682,592,714,651,772,752,770,743,827,1099,922,468,652,617,849,529,529,609,632,501,799,590,528,880,587,463,682,903,885,570,903,494,1376,782,620,600,467,694,545,438,642,897,558,706,610,832,584,430,676,856,667,794,825,596,519,1131,609,619,635,1147,492,626,566,828,475,895,726,356,384,412,718,1086,757,803,657,881,708,468,577
693,921,1260,1063,591,1155,802,1067,1378,916,921,725,1119,1130,1360,660,885,1325,1639,993,772,758,908,1313,1127,788,702,743,876,831,816,720,687,701,816,1124,1048,966,1262,1110,1224,793,1166,942,946,1173,669,647,1021,922,1237,609,1042,1073,989,819,987,1025,341,844,727,649,1050,955,913,749,638,1176,511,918,721,1030,597,950,764,834,1056,1007,1031,1122,1013,755,581,1175,997,868,877,705,606,1494,1646,780,1204,659,703,897,739,852,545,473,958,1226,893,838,1129,1418,1005,974,734,942,1009,791,971,969,538,880,1003,1189,1444,841,705,798,1049,640,934,981,841,893,1272,877,986,979,806,859,1080,1273,1089,713,810,691,759,1373,1108,602,697,1151,995,1192,1634,828,1010,542,850,1026,1216,700,1303,821,827,669,1018,909,1128,1049,1407,1069,1152,984,435,803,727,649,743,945,916,1068,1774,1119,695,909,1310,380,1382,780,1040,846,958,1190,873,830,572,589,1570,1021,1412,1048,1375,1208,918,981,848,1176,1060,1326,1059,1160,988,1215,682,1034,1065,1010,1065,1508,954,778,1167,855,669,1160,1319,772,978,1117,927,863,1356,1125,860,906,826,949,742,748,875,927,1031,969,1022,913,1274,1244,835,942,1134,868,933,963,1424,727,649,605,944,670,1057,944,1069,767,1093,884,1276,631,459,1195,1186,873,1465,1148,940,892,914,1113,647,683,1363,921,1386,844,1146,1248,558,1016,977,1018,814,1491,1105,703,584,850,1015,935,772,909,1115,1357,931,779,810,830,1048,811,1211,941,567,1115,824,955,1391,871,776,954,877,933,1121,549,409,920,593,1016,639,448,919,901,1206,1261,943,484,1464,685,790,1042,515,782,852,551,703,752,682,696,1236,1026,766,1101,1216,887,1979,979,1082,1114,738,806,699,946,598,1001,601,634,802,1273,697,996,686,837,1032,1258,1103,793,859,995,968,1269,737,643,1204,1007,846,1222,938,1409,899,926,1087,1200,957,749,1228,1172,681,919,696,951,742,572,933,489,1073,828,1003,1160,870,1234,1374,928,988,1147,1043,702,1038,1212,550,811,1263,1033,879,664,824,764,1247,744,859,503,1530,1147,825,860,874,989,1133,545,878,810,769,1725,803,872,1020,1330,517,1372,1566,1227,903,1146,723,1214,1007,881,1009,1074,497,839,713,541,687,639,939,961,960,1104,311,1812,983,895,1261,941,1210,717,1365,1253,966,690,1425,725,603,419,758,794,1216,1165,882,603,821,981,633,781,1139,565,1009,1128,1024,648,1178,819,777,945,840,1139,906,606,846,959,960,1047,1167,631,1337,754,483,698,719,1053,549,1154,924,585,1201,1130,1200,1191,828,917,1049,1047,783,1200,665,618,834,555,827,1227,638,962,702,806,932,1508,1190,709,1030,365,1156,1159,718,744,1040,756,886,502,927,876,1151,1045,764,1128,861,841,1018,1143,1548,866,642,1044,1002,1501,778,1056,964,631,670,729,1178,496,574,977,1072,846,952,668,546,942,840,1225,669,850,734,1056,1127,1318,804,798,821,954,1261,1073,352,840,1359,1124,781,576,583,664,753,737,842,1045,717,980,887,1529,1227,674,978,840,714,1054,540,1166,994,993,876,637,1027,953,987,572,780,691,1366,451,706,412,1184,763,452,594,706,896,863,1863,733,1215,1107,1103,638,1145,957,438,636,1111,794,895,977,933,1332,878,1122,1194,882,1319,894,1164,757,1166,707,705,846,947,892,1028,916,640,1126,1597,1196,497,1259,1219,551,670,956,1125,774,1141,919,619,875,740,747,735,1067,664,1029,784,875,614,1188,797,1026,1046,1046,839,849,666,1045,893,689,951,1281,1067,1161,1060,777,795,1006,1109,1011,1013,820,838,654,939,1477,1003,1346,1112,686,1250,1024,1513,1068,1335,1383,1176,657,1018,842,819,1192,994,931,1084,1031,869,1091,978,1130,949,1105,723,496,910,848,1508,1350,860,1056,1388,1437,1242,937,424,696,1095,1081,652,649,365,532,1277,1104,698,887,1159,920,1031,922,1347,876,1282,651,1536,822,425,1119,772,1013,753,1128,1048,843,1431,1467,702,640,1236,789,901,934,645,809,991,777,958,770,533,678,1183,1036,1094,945,832,952,1217,1014,1013,1112,984,1033,948,1115,1211,759,1392,832,909,858,1120,1175,1108,872,1027,497,1233,937,888,1193,875,865,991,924,1540,931,958,1371,908,1183,1506,1421,533,801,962,1117,1303,1388,1299,868,961,1077,1048,1062,1565,485,980,1310,831,1128,1123,1247,904,813,862,606,743,1436,833,779,1151,532,996,895,988,1048,1237,813,894,1424,1045,1338,873,1132,1064,694,740,836,993,1221,1109,921,843,993,1062,789,799,1526,751,655,781,732,1119,1051,1242,748,904,684,1022,1051,758,1310,1077,1150,1149,1029,702,1066,768,729,988,1178,486,831,706,637,1240,782,1116,824,790,1280,1019,762,825,856,903,945,485,894,1142,1020,1077,942,764,1472,658,1112,1225,908,868,637,1070,889,827,1227,1485,997,961,644,804,1109,1827,726,1152,1078,969,1109,981,1070,1043,1040,857,840,612,823,1019,1528,651,1492,995,622,960,1681,811,1417,837,1041,938,971,923,686,1556,844,1023,1288,1050,1201,1144,1775,1116,1394,1009,823,931,1423,1189,560,899,817,944,1001,487,768,1576,1204,762,734,833,631,682,1194,1301,862,746,963,842,1086,544,1011,631,1271,1349,1156,545,651,1119,1053,1542,780,1097,930,1101,1124,481,873,994,1029,916,1181,1371,857,1100,1222,776,897,984,1223,779,915,2623,767,629,1043,972,1306,1121,899,1508,913,556,668,1319,1365,1764,589,1246,1314,1171,742,694,512,863,1288,899,1045,702,1167,932,1289,734,669,886,1036,595,996,937,1195,998,1155,740,1233,982,769,948,1076,864,1125,899,792,963,1113,501,1296,879,936,1649,1157,1596,814,830,859,892,1032,1042,858,583,1076,1400,775,863,844,809,831,683,823,952,541,1018,663,782,990,733,1542,681,996,582,934,1093,604,1159,640,546,487,671,537,539,861,904,880,964,1175,1025,692,1011,573,892,1132,500,1066,910,656,574,1080,1280,559,1024,809,912,791,754,1018,534,1360,1156,1122,1108,1119,1179,868,694,1047,1151,914,783,372,1055,622,1058,1090,812,668,1572,1143,1106,833,1117,925,548,853,517,882,1236,946,798,781,1196,1249,1109,983,570,1145,857,1149,691,989,638,965,894,670,954,1273,679,1278,824,866,1357,852,921,1302,931,845,1146,939,1343,789,1125,947,717,924,1144,836,1142,808,1083,912,906,521,1147,712,780,845,731,860,1203,745,1207,891,1537,793,790,874,875,568,1230,1298,559,604,1002,1074,966,417,958,1315,911,1067,921,959,785,788,824,665,1075,700,618,675,951,847,1165,1087,780,1500,1087,772,683,1004,897,939,942,1113,1517,1094,604,1307,796,1344,680,941,896,786,684,791,707,821,1034,1609,1376,903,1027,954,1041,901,1294,845,872,767,1211,802,700,1029,889,1045,815,600,967,321,903,932,775,974,986,882,891,976,846,524,1073,594,579,992,620,635,919,1333,787,1208,960,491,993,1262,779,887,940,861,866,887,1051,909,318,696,754,1005,657,818,1235,1077,980,735,1002,818,1029,1007,1011,1040,1137,1382,1329,624,864,768,1023,696,709,881,971,716,1090,792,730,1248,779,631,950,1285,1209,752,1216,674,1797,1110,808,847,663,1224,714,597,843,1263,685,950,872,1141,811,547,887,1141,819,1089,1134,756,654,1311,844,846,923,1428,688,836,776,1133,560,1180,1042,695,536,556,984,1448,988,1053,866,1138,1000,737,756
865,1161,1575,1331,765,1456,1037,1344,1749,1120,1135,903,1426,1429,1745,853,1124,1703,2081,1200,1052,988,1154,1631,1457,1011,1010,916,1152,970,973,996,885,896,1052,1429,1409,1240,1878,1417,1506,998,1444,1198,1162,1477,832,823,1270,1146,1546,746,1386,1245,1289,934,1261,1318,482,1073,927,822,1319,1171,1232,857,791,1484,682,1066,894,1304,751,1301,1044,1067,1305,1305,1300,1417,1294,958,758,1478,1313,1106,1107,900,775,1937,1874,1003,1513,837,908,1105,979,1069,676,572,1214,1539,1129,1061,1510,1762,1306,1283,951,1195,1305,1004,1206,1257,665,1044,1267,1480,1830,1072,843,967,1239,801,1239,1277,1074,1194,1574,1154,1219,1217,1047,1123,1356,1634,1414,1013,943,874,939,1715,1398,773,872,1441,1215,1565,2036,1067,1285,709,1074,1157,1474,977,1600,1064,1076,871,1307,1138,1458,1338,1784,1196,1447,1327,539,1025,928,823,992,1194,1140,1433,2262,1388,846,1157,1655,475,1769,1006,1251,1037,1211,1502,1075,1092,731,762,2011,1278,1726,1353,1711,1576,1137,1222,1002,1386,1330,1660,1301,1512,1167,1392,876,1346,1347,1293,1337,1880,1226,974,1329,1139,856,1356,1714,964,1258,1410,1181,1158,1761,1401,1074,1151,1149,1363,889,945,1006,1187,1336,1274,1279,1180,1459,1565,970,1203,1432,1069,1079,1113,1772,927,941,892,1191,910,1276,1178,1360,1006,1376,1142,1437,779,575,1510,1484,1103,1879,1456,1221,1165,1200,1405,813,1024,1733,1152,1748,973,1394,1595,715,1261,1228,1295,1042,1900,1432,872,752,956,1184,1187,1055,1159,1380,1694,1172,1008,1052,1068,1336,1045,1507,1192,741,1430,1026,1268,1745,1101,1037,1223,1147,1172,1410,869,689,1104,765,1289,801,561,1181,1040,1494,1636,1224,617,1860,857,1029,1316,665,997,1030,605,863,946,862,875,1542,1315,971,1422,1515,1138,2103,1108,1350,1512,936,1095,954,1210,739,1274,780,923,1028,1587,899,1245,856,1049,1309,1480,1516,963,1098,1271,1199,1513,947,826,1547,1262,1118,1538,1175,1721,1144,1166,1356,1512,1245,975,1576,1301,816,1179,897,1246,943,720,1193,625,1323,954,1174,1466,1056,1616,1727,1231,1162,1444,1304,907,1304,1502,703,1033,1661,1276,1098,826,961,986,1645,976,1027,630,1921,1397,1049,994,1100,1261,1408,675,1171,1002,967,1991,1039,1131,1333,1568,649,1721,1922,1472,1155,1469,893,1467,1351,1154,1279,1348,642,961,912,739,845,883,1159,1194,1207,1421,527,2396,1233,1229,1586,1169,1528,983,1727,1567,1215,863,1781,971,778,701,957,1111,1508,1439,1137,775,896,1356,807,1201,1410,746,1325,1397,1226,810,1413,1015,1008,1205,1050,1488,1170,707,1104,1217,1219,1357,1532,831,1681,974,626,861,850,1313,693,1518,1185,722,1506,1406,1489,1546,1068,1198,1321,1209,901,1500,842,798,1004,680,1190,1494,827,1223,867,1004,1181,1876,1465,870,1309,452,1468,1496,1001,1005,1225,985,1103,617,1248,945,1279,1362,993,1394,1132,1103,1298,1492,2047,1367,846,1323,1322,1919,977,1446,1222,709,833,861,1485,631,738,1264,1388,1106,1234,845,678,1205,1044,1541,839,1012,950,1310,1403,1765,932,999,941,1195,1598,1294,441,1170,1854,1423,1141,731,723,832,943,958,1094,1353,1067,1312,1054,1924,1540,937,1277,1152,920,1420,691,1503,1218,1254,1015,821,1292,1182,1268,911,1007,854,1745,666,885,532,1483,954,561,772,883,1217,1044,2328,1155,1566,1382,1333,803,1435,1208,543,891,1392,1092,1049,1217,1199,1729,1166,1521,1480,1152,1606,1386,1469,910,1453,932,831,1089,1223,1154,1282,1059,788,1318,1943,1553,610,1533,1465,715,862,1217,1303,1004,1432,1190,765,1147,962,981,953,1308,831,1318,885,1164,772,1486,1029,1291,1306,1354,1070,1179,868,1310,1157,991,1097,1582,1356,1705,1132,991,975,1202,1424,1287,1276,1143,1096,839,1077,1843,1260,1684,1478,885,1629,1283,1921,1337,1717,1758,1477,751,1466,1078,1033,1501,1260,1079,1399,1334,1093,1422,1232,1447,1255,1416,901,634,1181,1047,1917,1695,1122,1343,1850,1800,1611,1163,531,859,1386,1377,905,833,450,687,1433,1369,865,1201,1439,1170,1419,1148,1759,1184,1442,807,1923,940,539,1408,959,1297,945,1484,1298,1245,1797,1864,886,861,1463,1134,1133,1195,817,1032,1292,1069,1234,951,677,841,1476,1315,1407,1101,886,1272,1570,1383,1328,1255,1269,1274,1208,1327,1697,958,1716,1039,1168,1127,1459,1612,1385,1164,1330,621,1570,1206,1059,1521,1233,1100,1268,1164,2076,1198,1267,1765,1166,1352,1850,1789,668,998,1211,1388,1693,1732,1628,1277,1248,1344,1322,1368,1988,595,1259,1692,1028,1407,1424,1557,1182,1140,1012,763,960,1809,1050,1048,1448,683,1345,1118,1250,1403,1560,1007,1092,1799,1398,1710,1128,1398,1328,879,947,1054,1265,1556,1338,1230,1155,1251,1321,1065,1029,1910,927,898,1015,907,1416,1308,1588,1079,1139,953,1351,1316,946,1645,1342,1415,1420,1295,903,1250,940,916,1246,1547,594,1085,884,806,1335,981,1431,1037,1014,1623,1324,871,1078,1100,1170,1179,735,1040,1532,1266,1239,1218,974,1893,840,1413,1538,1175,1118,822,1367,1024,1038,1559,1888,1292,1074,863,1060,1376,2266,967,1475,1355,1242,1254,1202,1360,1313,1322,1224,998,773,1072,1282,1909,808,1870,1260,798,1222,2103,967,1770,1159,1271,1185,1169,1141,970,1944,1147,1282,2015,1297,1459,1435,2265,1283,1745,1251,1187,1237,1782,1480,687,1105,1074,1174,1107,601,986,1972,1538,1090,943,1089,817,882,1502,1622,1125,961,1191,1091,1391,703,1142,801,1538,1723,1492,694,850,1440,1352,1929,968,1407,1206,1369,1438,585,1014,1264,1292,1168,1547,1770,951,1372,1550,1022,1133,1261,1510,975,989,3260,988,796,1205,1265,1434,1489,1166,1898,1220,704,826,1645,1727,2219,750,1597,1666,1462,921,870,651,1037,1606,1191,1320,923,1525,1170,1524,931,928,1132,1299,768,1264,1337,1483,1364,1468,939,1634,1254,1059,1067,1346,1091,1438,1089,998,1219,1336,647,1637,1093,1224,1717,1517,2090,1014,1030,1079,1170,1311,1266,1047,716,1444,1765,947,1103,1202,1046,1099,932,1008,1234,618,1303,850,1019,1253,950,2015,1072,1308,716,1201,1240,767,1448,806,711,628,831,677,680,1124,1158,1013,1229,1537,1314,856,1270,740,1177,1467,620,1321,1152,821,705,1400,1513,704,1252,1044,1191,1031,992,1210,683,1744,1471,1262,1387,1233,1411,1122,866,1307,1402,1174,1119,463,1378,791,1361,1393,1080,885,2003,1458,1373,1127,1336,1200,676,1106,652,983,1372,1208,924,966,1535,1657,1396,1254,720,1471,1125,1280,875,1235,809,1204,1102,832,1183,1620,943,1639,1034,1141,1730,1099,1162,1624,1159,1085,1440,1155,1663,893,1443,1180,956,1203,1383,1154,1403,1047,1365,1199,1143,629,1509,895,1018,1131,1028,1123,1563,919,1515,1145,1893,1014,904,1092,1191,743,1541,1616,689,757,1269,1325,1220,595,1181,1507,1063,1334,1171,1253,1010,964,1113,832,1338,910,779,863,1148,1038,1313,1371,882,1895,1377,1234,886,1164,1149,1188,1200,1585,1898,1358,771,1662,971,1655,796,1283,1040,999,852,1010,913,1021,1336,2072,1664,1162,1288,1182,1351,1159,1684,1081,1130,999,1514,952,855,1333,1132,1309,1067,761,1207,403,1112,1248,1032,1234,1266,1114,1104,1212,1084,673,1347,782,752,1355,777,837,1085,1664,1026,1510,1251,649,1235,1655,1001,1115,1209,1108,1234,1146,1348,1235,377,894,931,1283,815,1068,1538,1394,1278,1030,1282,968,1317,1259,1176,1321,1450,1667,1738,781,1074,1051,1438,863,891,1146,1210,842,1382,996,931,1634,970,799,1455,1627,1521,931,1521,855,4309,1440,1001,1095,860,1339,888,755,1046,1698,904,1199,1087,1447,1043,660,1104,1427,1094,1387,1445,962,970,1688,1081,1072,1212,1690,884,1049,984,1438,768,1466,1325,877,686,698,1179,1803,1215,1317,1176,1380,1291,866,932
1034,1481,1897,1595,943,1655,1298,1626,2115,1316,1348,1083,1733,1720,2146,1044,1301,2073,2522,1514,1314,1218,1398,1958,1717,1237,1247,1089,1417,1310,1104,1229,1083,1091,1286,1709,1766,1510,2219,1722,1799,1211,1724,1463,1503,1782,997,997,1554,1379,1855,885,1556,1411,1584,1257,1541,1617,654,1338,1116,996,1589,1482,1368,962,943,1795,831,1238,1067,1552,840,1597,1274,1284,1599,1574,1560,1706,1571,1160,935,1774,1623,1341,1337,1096,942,2376,2140,1219,1832,1015,1115,1260,1100,1300,808,670,1474,1903,1368,1238,1830,2104,1612,1473,1169,1397,1622,1216,1465,1532,793,1184,1531,1777,2222,1297,1053,1140,1649,964,1380,1583,1304,1492,1876,1390,1455,1458,1188,1390,1635,1997,1742,1271,1170,1055,1118,2046,1702,947,1053,1728,1488,1938,2431,1311,1473,822,1263,1286,1755,1247,1878,1336,1324,1075,1597,1365,1744,1633,2170,1331,1743,1674,636,1242,1118,995,1263,1440,1364,1813,2757,1662,1062,1403,1967,569,2120,1231,1464,1279,1465,1803,1322,1377,890,934,2454,1531,2157,1663,2051,1894,1352,1451,1286,2045,1605,1999,1663,1689,1415,1759,1071,1648,1628,1574,1614,2252,1494,1169,1725,1405,1043,1711,2098,1159,1542,1622,1445,1450,2076,1679,1306,1396,1369,1589,1121,1138,1305,1434,1630,1547,1814,1455,1623,1884,1225,1464,1728,1267,1382,1268,2139,1126,1050,996,1443,1070,1419,1317,1641,1255,1657,1404,1760,925,686,1835,1771,1338,2055,1785,1496,1431,1482,1708,978,1254,2104,1380,2125,1284,1875,1936,872,1503,1479,1435,1273,2226,1763,1039,917,1260,1446,1386,1286,1418,1657,2093,1415,1237,1293,1304,1633,1281,1799,1444,906,1501,1232,1454,2099,1333,1251,1495,1418,1419,1688,1132,923,1415,937,1570,962,675,1441,1292,1779,2012,1509,750,2253,1026,1273,1624,814,1243,1214,803,1022,1139,1044,1053,1837,1597,1183,1739,1817,1429,2438,1411,1614,1914,1135,1222,1121,1468,879,1546,897,1209,1260,1897,1100,1493,1025,1242,1586,1901,1888,1170,1325,1547,1432,1932,1155,1009,1882,1517,1386,1856,1409,2001,1381,1408,1618,1824,1515,1196,1929,1602,1046,1375,1078,1533,1142,845,1445,761,1575,1283,1523,1767,1449,1991,2400,1440,1585,1766,1564,1113,1454,1790,851,1256,2022,1523,1321,1037,1223,1207,1823,1093,1194,710,2349,1559,1282,1313,1326,1534,1672,804,1449,1241,1165,2257,1278,1390,1648,1769,762,2088,2273,1718,1407,1808,1063,1978,1633,1397,1542,1616,787,1340,997,1045,1000,1084,1380,1430,1461,1739,646,2711,1475,1395,1900,1398,1855,1135,2095,1885,1465,1041,2138,1169,954,896,1155,1378,1803,1715,1394,948,1144,1511,982,1502,1768,926,1642,1655,1420,974,1658,1219,1239,1465,1385,1774,1435,833,1296,1362,1474,1661,1912,1021,2026,1193,771,1024,1106,1579,837,1885,1440,860,1812,1678,1784,1916,1261,1479,1594,1489,1190,1805,923,979,1185,803,1497,1769,1011,1487,1033,1218,1442,2239,1772,1033,1561,538,1780,1817,1239,1276,1587,1221,1318,726,1493,1164,1592,1673,1224,1660,1413,1364,1587,1855,2547,1822,1049,1600,1641,2346,1175,1734,1477,903,993,913,1852,801,901,1549,1707,1366,1488,1020,864,1467,1247,1852,1008,1332,1165,1812,1691,2112,1143,1201,1209,1437,1936,1555,528,1449,2089,1719,1308,884,863,1000,1131,1179,1358,1650,1183,1602,1354,2310,1858,1160,1578,1439,1126,1751,842,1947,1434,1522,1322,1008,1558,1414,1552,1044,1238,1023,2124,762,1067,652,1780,1147,671,951,1061,1587,1224,2799,1289,1894,1656,1640,968,1728,1460,648,1137,1662,1241,1317,1445,1452,1912,1315,1798,1810,1455,1939,1607,1780,1167,1735,1115,942,1328,1489,1417,1532,1332,937,1726,2296,1836,723,1984,1710,879,1055,1488,1489,1239,1729,1464,912,1279,1185,1216,1174,1611,1036,1610,1146,1453,931,1791,1258,1543,1574,1648,1299,1506,1068,1566,1422,1245,1353,1882,1677,1972,1391,1135,1180,1292,1738,1574,1515,1325,1357,961,1345,2212,1520,2020,1808,1086,2008,1415,2320,1606,2077,2142,1750,1048,1902,1316,1242,1817,1522,1390,1653,1636,1445,1673,1466,1770,1564,1727,1027,772,1453,1239,2319,2042,1390,1677,2315,2164,1985,1391,637,1033,1695,1675,1055,1015,535,842,1864,1635,1034,1538,1730,1673,1672,1372,2152,1506,1900,965,2315,1221,654,1663,1082,1585,1115,1927,1548,1476,2162,2257,1075,1033,1561,1405,1426,1452,986,1249,1586,1323,1509,1134,852,1005,1771,1588,1710,1256,982,1496,1852,1673,1641,1645,1555,1518,1496,1473,2166,1153,2057,1245,1439,1385,1800,1997,1656,1454,1566,744,1912,1500,1273,1847,1426,1330,1532,1409,2327,1469,1584,2141,1407,1734,2242,2151,801,1194,1462,1570,2086,2074,1962,1688,1529,1619,1598,1675,2384,708,1537,2096,1233,1694,1666,1851,1470,1430,1298,921,1183,2181,1262,1317,1751,965,1643,1339,1508,1759,1883,1200,1289,2153,1563,2086,1381,1655,1597,972,1156,1270,1549,1895,1565,1437,1463,1414,1584,1317,1179,2285,1101,1148,1248,1081,1684,1563,1920,1244,1373,1066,1698,1581,1125,1987,1607,1675,1695,1543,1243,1540,1117,1060,1506,1917,705,1231,976,975,1477,1178,1743,1250,1255,1971,1632,1010,1330,1342,1425,1414,895,1352,1915,1515,1625,1461,1183,2377,1015,1715,1851,1409,1367,1008,1664,1346,1246,1883,2232,1560,1151,1080,1136,1581,2714,1160,1789,1631,1486,1573,1427,1634,1581,1641,1484,1138,934,1322,1547,2295,928,2264,1501,901,1483,2525,1100,2117,1416,1508,1426,1391,1362,1248,2332,1351,1541,2198,1538,1610,1721,2735,1730,2101,1489,1443,1518,2130,1771,813,1307,1273,1413,1277,714,1193,2440,1823,1243,1152,1347,1002,1101,1686,1943,1388,1168,1560,1345,1699,861,1310,868,1854,2066,1698,841,1005,1763,1501,2318,1152,1705,1480,1635,1690,689,1295,1535,1440,1402,1902,2138,1068,1683,1837,1252,1378,1540,1829,1168,1170,3907,1212,963,1574,1547,1650,1849,1457,2297,1380,852,985,1972,2090,2655,1093,1959,2012,1754,1096,1044,791,1313,1746,1478,1590,1099,1884,1305,1950,1110,1195,1377,1559,942,1533,1483,1859,1732,1779,1138,2026,1518,1380,1265,1603,1314,1938,1281,1208,1465,1640,795,1972,1311,1515,2058,1872,2573,1218,1270,1298,1451,1591,1575,1237,849,1600,2132,1120,1368,1455,1283,1359,1124,1194,1518,836,1588,910,1259,1516,1172,2488,1348,1585,853,1387,1353,913,1735,973,860,771,991,818,810,1340,1409,1163,1380,1884,1597,1021,1541,908,1446,1805,764,1565,1346,986,834,1706,1752,848,1477,1278,1466,1274,1216,1534,834,2165,1793,1375,1674,1407,1645,1372,1039,1565,1623,1432,1396,551,1707,963,1609,1698,1359,1068,2417,1768,1634,1473,1555,1464,802,1228,788,1151,1620,1475,1189,1153,1853,1937,1683,1524,869,1775,1393,1413,1058,1477,983,1443,1337,953,1413,1969,1222,2008,1250,1415,2079,1341,1404,1947,1387,1326,1735,1495,1982,1018,1778,1421,1136,1493,1536,1409,1674,1270,1647,1484,1375,743,1895,1079,1257,1341,1325,1389,1874,1094,1823,1398,2245,1236,1038,1314,1453,919,1853,1756,820,906,1531,1571,1467,850,1400,1881,1393,1605,1458,1548,1163,1097,1297,1003,1602,1125,965,1052,1352,1309,1594,1649,971,2296,1673,1665,1098,1534,1401,1469,1440,2052,2228,1614,945,2032,1261,1966,1074,1629,1290,1210,1020,1225,1116,1172,1612,2533,1812,1421,1544,1311,1660,1422,2071,1352,1387,1235,1822,1199,1058,1634,1287,1575,1199,921,1443,486,1333,1557,1283,1495,1539,1349,1322,1522,1382,820,1614,937,924,1647,934,1144,1225,1993,1266,1808,1419,807,1571,2030,1220,1347,1427,1354,1495,1405,1649,1676,514,1093,1107,1560,972,1320,1876,1712,1573,1258,1571,1265,1617,1398,1374,1618,1750,1955,2125,938,1222,1290,1751,1032,1072,1417,1381,965,1524,1197,1133,2028,1162,967,1676,1953,1830,1110,1829,1035,5895,1770,1194,1336,1057,1722,1058,912,1250,2140,1123,1448,1332,1754,1283,777,1328,1712,1341,1685,1753,1376,1191,2069,1320,1298,1501,1969,1080,1259,1192,1745,1190,1748,1611,991,841,841,1419,2163,1442,1571,1552,1629,1574,958,1110
1201,1741,2219,1864,1097,1980,1524,1914,2482,1509,1564,1264,2034,2000,2514,1233,1555,2451,2966,1828,1496,1449,1643,2280,2117,1461,1475,1262,1678,1572,1201,1332,1284,1291,1448,1926,2098,1780,2555,2019,2103,1374,2003,1714,1704,1994,1160,1171,1844,1619,2169,1026,1901,1738,1875,1472,1810,1909,901,1598,1307,1169,1857,1639,1700,1174,1094,2104,978,1364,1241,1801,982,1892,1507,1503,1894,1865,1814,2000,1837,1364,1114,2097,1927,1575,1567,1291,1111,2657,2730,1446,2146,1195,1324,1491,1353,1577,937,769,1734,2236,1606,1471,2146,2186,1914,1625,1386,1709,1885,1426,1700,1801,920,1527,1788,2085,2601,1516,1178,1316,1965,1129,1484,1876,1533,1794,2173,1638,1694,1695,1285,1658,1919,2350,2069,1514,1293,1239,1296,2312,1998,1118,1236,2000,1734,2171,2828,1560,1843,960,1514,1552,1993,1511,2174,1476,1570,1278,1885,1593,1988,1914,2563,1479,2037,2018,779,1457,1307,1169,1519,1685,1592,2099,3233,1928,1238,1574,2289,669,2499,1455,1904,1376,1710,2078,1573,1621,1050,1110,2898,1785,2520,1976,2379,2180,1582,1687,1577,4459,1883,2339,2022,2080,1778,2083,1267,1943,1903,1850,1890,2622,1764,1365,2062,1569,1230,1895,2472,1353,1825,1997,1679,1741,2496,1910,1522,1639,1588,1924,1323,1330,1587,1667,1904,1822,2078,1721,1785,2215,1453,1703,2025,1465,1532,1599,2505,1326,1352,1109,1686,1327,1691,1590,1927,1427,1935,1675,2196,1072,807,2142,2076,1569,2517,2123,1772,1706,1766,2012,1142,1481,2470,1606,2512,1510,2114,2280,1029,1707,1730,1565,1502,2419,2094,1204,1082,1544,1693,1695,1517,1678,1928,2507,1663,1467,1536,1539,1941,1516,2079,1695,1076,1809,1442,1793,2452,1563,1449,1755,1689,1670,1969,1341,1189,1605,1109,1841,1123,788,1702,1441,2078,2389,1794,885,2722,1197,1509,1894,963,1426,1377,983,1233,1330,1232,1220,2118,1884,1399,2058,2126,1676,2699,1675,1872,2320,1333,1514,1264,1729,1020,1817,1031,1496,1484,2211,1301,1742,1196,1440,1862,2354,2045,1358,1546,1823,1667,2268,1365,1192,2217,1696,1528,2174,1642,2282,1616,1651,1868,2143,1758,1314,2280,2028,1181,1604,1273,1817,1337,1011,1703,897,1830,1511,1854,2071,1641,2368,2722,1712,1867,2093,1824,1319,1873,2078,993,1478,2383,1776,1541,1227,1436,1425,2066,1363,1361,856,2800,1921,1449,1538,1546,1810,1950,934,1667,1509,1361,2805,1511,1642,1962,1874,917,2447,2647,1962,1659,2155,1235,2235,1959,1639,1800,1886,932,1603,1116,1359,1157,1280,1603,1675,1705,2055,741,3276,1706,1459,2209,1626,2198,1451,2461,2207,1713,1220,2494,1361,1128,1166,1355,1639,2105,1990,1652,1120,1402,1886,1157,1661,2030,1108,1959,1907,1822,1134,1903,1445,1465,1615,1665,2019,1700,956,1556,1605,1733,1957,2283,1143,2370,1413,916,1188,1319,1848,985,2236,1691,998,2114,1952,2072,2279,1509,1760,1868,1647,1395,2107,1096,1160,1309,930,1801,1904,1199,1750,1201,1391,1696,2609,2081,1196,1818,625,2075,2115,1472,1544,1877,1454,1535,842,1786,1361,1841,1995,1453,1924,1740,1626,1871,2253,3040,2085,1247,1812,1958,2819,1376,2019,1730,1099,1155,1093,2178,882,1063,1832,2024,1614,1804,1193,986,1729,1453,2168,1176,1494,1384,2082,1979,2359,1288,1402,1330,1676,2272,1836,615,1722,2576,1951,1668,1038,1002,1169,1272,1401,1613,1955,1522,1807,1596,2712,2174,1382,1877,1742,1334,2047,993,2406,1659,1796,1461,1196,1827,1646,1840,1422,1467,1193,2502,895,1249,771,2075,1338,778,1121,1239,1797,1364,3263,1681,2186,1919,1904,1132,2020,1616,752,1389,1934,1417,1551,1686,1709,2126,1601,2082,2142,1743,2333,1833,2080,1324,1891,1371,1073,1570,1762,1682,1784,1574,1087,1923,2654,2127,835,2260,1954,1042,1262,1758,1881,1472,1990,1740,1058,1687,1407,1445,1397,1827,1244,1904,1327,1738,1089,2107,1488,1794,1857,1924,1435,1627,1270,1820,1690,1505,1586,2180,1931,2122,1523,1416,1359,1571,2055,1860,1677,1645,1599,1217,1557,2580,1786,2354,2085,1282,2387,1781,2717,1825,2250,2484,2131,1251,2335,1452,1436,2123,1778,1669,1970,1939,1647,1941,1704,2098,1865,2040,1081,912,1725,1446,2729,2385,1489,1896,2767,2544,2364,1577,741,1193,1883,1972,1332,1196,619,997,2196,1897,1201,1836,2026,1910,1924,1594,2547,1840,2056,1127,2704,1344,768,2016,1339,1860,1303,2398,1798,1677,2526,2326,1276,1206,1879,1668,1696,1617,1154,1462,1930,1576,1782,1321,1109,1169,2067,1855,2041,1413,1122,1863,2001,1835,1956,1912,1843,1765,1786,1726,2351,1347,2411,1450,1726,1647,2133,2383,1925,2007,1862,866,2250,1804,1600,2174,1610,1559,1811,1652,2845,1739,1893,2535,1685,2106,2611,2502,929,1392,1711,1858,2466,2417,2248,2094,1808,1892,1873,1982,2757,819,1818,2508,1432,1839,1977,2150,1759,1599,1555,1079,1407,2552,1474,1581,2058,1177,1941,1558,1770,2086,2206,1392,1489,2518,1916,2444,1647,1933,1868,1044,1363,1484,1902,2225,1803,1693,1777,1773,1847,1562,1353,2673,1276,1400,1481,1255,1979,1820,2254,1563,1612,1147,1976,1850,1297,2322,1875,1820,1973,1836,1420,1826,1294,1298,1767,2296,815,1567,1220,1142,1714,1378,1971,1464,1472,2317,1936,1271,1582,1585,1677,1654,970,1499,2297,1761,1896,1722,1392,2848,1190,2016,2157,1729,1513,1193,1970,1480,1457,2201,2600,1868,1479,1296,1312,1630,3157,1352,2086,1898,1808,1843,1653,1927,1847,1870,1711,1245,1093,1571,1814,2672,1102,2654,1749,1005,1633,2946,1170,2465,1646,1747,1668,1613,1581,1521,2719,1652,1799,2557,1774,1957,2016,3205,2035,2281,1723,1611,1797,2466,2063,939,1509,1454,1664,1555,826,1624,2918,2138,1553,1361,1601,1184,1335,2078,2267,1653,1374,1801,1605,2013,1021,1487,1018,2140,2406,2049,985,1188,2087,1858,2700,1283,2006,1752,1793,2031,794,1554,1797,1809,1707,2065,2494,1287,1897,2165,1727,1625,1822,2146,1365,1243,4554,1442,1130,1737,1835,2001,2004,1724,2646,1733,1001,1145,2302,2447,3060,1207,2300,2339,2051,1271,1216,926,1537,2048,1766,1816,1324,2244,1593,2361,1325,1468,1623,1824,1116,1805,1882,2088,2077,2085,1302,2429,1769,1520,1569,1877,1537,2141,1470,1426,1723,1863,945,2305,1539,1806,2442,2230,3057,1419,1605,1521,1698,1873,1848,1606,979,1968,2503,1293,1590,1776,1519,1614,1312,1380,1806,1122,1870,1227,1497,1782,1343,2723,1494,1758,992,1471,1527,1077,2019,1142,1008,914,1155,959,938,1631,1659,1436,1527,2233,1872,1185,1818,1075,1709,2130,888,1804,1651,1150,964,2039,2256,993,1613,1511,1744,1500,1485,1798,985,2549,2115,1505,1968,1836,1913,1620,1214,1822,1842,1694,1666,646,2032,1130,1865,2001,1642,1278,2815,2062,1896,1791,1774,1731,926,1593,924,1269,1924,1745,1316,1341,2161,2350,1970,1798,1020,1942,1655,1768,1242,1713,1154,1682,1450,1183,1644,2322,1458,2368,1486,1689,2434,1583,1648,2269,1616,1565,2029,1788,2300,1248,2115,1666,1321,1783,1857,1763,2143,1481,1929,1769,1521,854,2229,1265,1495,1627,1611,1646,2192,1267,2131,1653,2605,1462,1267,1542,1710,1088,2169,2048,950,1054,1796,1824,1714,1106,1621,2248,1665,1876,1808,1841,1395,1382,1587,1177,1864,1306,1123,1240,1551,1498,1784,1928,1163,2696,1964,1870,1377,1667,1656,1613,1695,2507,2554,1858,1116,2360,1506,2277,1276,1841,1518,1424,1188,1388,1321,1409,1915,2995,2088,1678,1805,1411,1963,1668,2461,1465,1647,1470,2150,1467,1216,1934,1591,1838,1455,1081,1689,567,1561,1855,1520,1748,1788,1576,1546,1774,1522,970,1885,1165,1095,1939,1091,1236,1385,2323,1505,2108,1833,965,1859,2446,1442,1584,1670,1528,1758,1654,1948,1941,634,1300,1282,1837,1126,1573,2226,2031,1875,1477,1853,1601,1947,1701,1619,1894,2052,2239,2496,1096,1472,1532,2051,1201,1253,1692,1541,1184,1912,1394,1334,2421,1354,1137,1891,2156,2148,1296,2136,1216,6019,2108,1384,1584,1253,1972,1227,1068,1459,2572,1345,1697,1564,2057,1534,894,1565,1997,1494,1984,2063,1541,1409,2443,1558,1523,1789,2241,1275,1472,1403,2053,1389,1910,1900,1101,993,984,1649,2523,1682,1834,1785,1885,1859,1043,1287
1368,2145,2526,2128,1310,2281,1747,2200,2853,1702,1783,1445,2332,2281,2901,1419,1698,2822,3399,2013,1789,1669,1893,2600,2448,1682,1613,1434,1940,1829,1397,1506,1485,1492,1649,2234,2417,2051,3185,2321,2412,1611,2134,2002,1973,2330,1326,1344,2123,1848,2329,1165,2070,1904,2172,1690,2075,2203,964,1851,1497,1340,2122,1970,2038,1381,1247,2412,1126,1584,1415,2044,1130,2156,1737,1722,2193,2154,2091,2290,1970,1568,1292,2384,2237,1806,1795,1480,1280,3985,2963,1684,2455,1376,1532,1727,1489,1824,1062,868,1993,2569,1843,1729,2475,2445,2216,1769,1670,1990,2178,1640,1959,2065,1047,1837,2046,2390,2985,1737,1318,1495,2255,1296,1647,2181,1765,2093,2473,1878,1933,1929,1416,1925,2198,2704,2395,1756,1526,1420,1476,2695,2288,1291,1422,2286,1986,2586,3226,1810,2130,1099,1747,1680,2274,1773,2435,1681,1817,1483,2173,1820,2306,2200,2945,1633,2331,2360,864,1672,1494,1336,1762,1826,1821,2385,3717,2179,1383,1891,2616,757,2851,1681,2116,1551,1958,2406,1823,1931,1359,1283,3341,2041,2874,2287,2714,2564,1671,1925,1863,5169,2166,2675,2322,2442,2118,2323,1463,2238,2181,2128,2157,2986,2036,1560,2379,1837,1415,2252,2853,1543,2107,2308,1943,2034,2817,2224,1720,1882,1805,2099,1469,1522,1850,1907,2194,2090,2306,1986,1912,2545,1703,1976,2324,1663,1762,1872,2855,1527,1557,1402,1934,1489,2007,1830,2206,1512,2225,1934,2355,1219,915,2457,2367,1793,2920,2445,2055,1984,2050,2302,1306,1710,2832,2057,2897,1734,2352,2621,1186,1919,1981,1834,1730,2870,2430,1370,1246,1831,1944,1950,1751,1950,2198,2894,1909,1695,1780,1778,2237,1751,2384,1946,1246,2120,1650,1948,2807,1797,1670,2016,1958,1932,2254,1649,1456,1790,1281,2122,1285,902,1966,1691,2382,2759,2075,1020,3155,1371,1744,2131,1112,1641,1546,1052,1416,1521,1425,1386,2411,2171,1605,2375,2434,1909,3170,1946,2125,2725,1531,1641,1413,1990,1160,2092,1132,1785,1702,2518,1538,1932,1401,1641,2138,2498,2169,1523,1765,2097,1906,2609,1575,1378,2553,2005,1813,2477,1871,2573,1852,1893,2113,2469,2055,1601,2621,2159,1385,1833,1488,2109,1531,1158,1959,1032,2083,1737,2169,2383,1799,2556,3064,1976,2134,2363,2084,1522,2149,2230,1135,1702,2602,2016,1737,1411,1638,1647,2436,1550,1527,996,3216,2171,1611,1759,1777,2089,2185,1063,1963,1685,1558,3085,1665,1904,2275,2046,1191,2823,3002,2446,1911,2484,1406,2497,2257,2058,2046,2073,1076,1855,1195,1665,1315,1479,1829,1915,1952,2374,809,3877,2152,1740,2526,1856,2427,1722,2833,2527,1962,1396,2699,1556,1302,1213,1553,1902,2406,2265,1908,1292,1659,2040,1331,2081,2380,1291,2274,2163,2103,1296,2126,1605,1692,1903,1972,2368,1960,1081,1794,1854,1984,2259,2660,1371,2713,1633,1062,1351,1526,2108,1135,2603,1943,1135,2422,2224,2370,2644,1698,2041,2144,1922,1590,2408,1265,1560,1549,1051,2103,2276,1384,2010,1370,1687,1937,3641,2411,1356,2088,712,2382,2403,1706,1807,2153,1687,1751,1026,2029,1673,2174,2312,1681,2192,2077,1893,2139,2615,3543,2557,1443,1888,2137,3251,1582,2338,1960,1296,1319,1272,2849,1039,1224,2121,2341,1847,2094,1367,1117,1995,1662,2482,1342,1797,1603,2585,2260,2832,1470,1600,1597,1915,2608,2072,704,1993,2806,2305,1836,1193,1142,1340,1517,1623,1871,2272,1746,2028,1838,3105,2477,1563,2178,2068,1456,2407,1144,2759,1888,2064,1773,1383,2102,1878,2128,1559,1697,1363,2884,1062,1429,891,2370,1529,888,1283,1417,1956,1595,3733,1814,2606,2190,2168,1296,2311,1822,856,1483,2215,1643,1774,1926,1966,2522,1749,2243,2492,2033,2866,2066,2384,1580,2208,1596,1178,1806,2033,1946,2036,1809,1237,2341,2999,2417,947,2714,2207,1205,1444,2081,2067,1736,2329,2015,1202,1955,1583,1671,1621,2158,1456,2194,1593,2024,1247,2385,1719,2060,2126,2190,1767,1826,1471,2083,1957,1619,1810,2481,2245,2519,1887,1629,1569,1835,2377,2137,1943,1829,1830,1412,1756,2953,2059,2505,2385,1479,2756,1999,3118,2140,2404,2807,2460,1449,2766,1761,1620,2436,2040,1942,2215,2246,1906,2194,1946,2417,2161,2352,1260,1053,1999,1645,3134,2728,1649,2106,3225,2910,2736,1840,845,1370,2021,2270,1479,1377,703,1152,2495,2156,1372,2133,2312,2149,2180,1818,2961,2179,2505,1290,3089,1613,883,2306,1527,2143,1688,2801,2044,1893,2823,2626,1466,1379,2202,1933,1958,1955,1323,1681,2213,1828,2048,1512,1251,1333,2358,2114,2355,1575,1376,2191,2437,2212,2274,2170,2126,2008,2075,1941,2645,1540,2780,1653,2019,1911,2456,2763,2197,2296,2145,989,2591,2092,1855,2503,1798,1788,2082,1894,3099,2015,2203,2911,1952,2269,3077,2859,1063,1591,1960,2094,2843,2757,2623,2496,2085,2168,2151,2288,3126,930,2096,2899,1613,2021,2255,2449,2042,1739,1809,1239,1629,2925,1685,1827,2352,1386,2242,1779,2060,2436,2528,1584,1690,2892,2083,2771,1817,2199,2132,1249,1601,1697,2129,2561,2069,1946,2095,2073,2109,1811,1503,3087,1451,1654,1712,1430,2279,2074,2587,1794,1850,1340,2277,2119,1466,2662,2131,1935,2243,1962,1596,2062,1473,1485,2027,2672,927,1823,1401,1308,1959,1574,2190,1681,1694,2660,2234,1522,1835,1829,1910,1893,1124,1812,2679,2007,2162,2001,1601,3269,1359,2317,2412,2005,1771,1378,2279,1799,1667,2534,3025,2166,1738,1511,1389,1944,3239,1543,2412,2171,2072,2113,1885,2215,2113,2194,1933,1476,1255,1821,2074,3044,1250,3047,2002,1237,1914,3296,1260,2619,1878,2005,1909,1862,1803,1793,3106,1849,2059,2734,2035,2104,2299,3661,2339,2433,1957,1832,2038,2827,2359,1063,1710,1704,1912,1839,904,1826,3322,2457,1735,1571,1856,1369,1413,2391,2590,1918,1574,2102,1867,2327,1183,1607,1157,2422,2785,2358,1128,1389,2411,2100,3079,1487,2315,2024,2158,2337,899,1804,2057,2046,1979,2439,2863,1498,2169,2456,1960,1865,2097,2465,1569,1427,5203,1683,1297,2104,2074,2353,2419,1960,3081,2039,1148,1303,2627,2814,3493,1321,2652,2425,2349,1448,1386,1060,1738,2371,2056,2116,1524,2597,1850,2726,1521,1747,1878,2090,1289,2075,2165,2296,2420,2415,1485,2835,2030,1655,1842,2147,1763,2430,1662,1646,1977,2224,1097,2649,1756,2091,2843,2584,3903,1619,1895,1742,1978,2153,2052,1804,1111,2124,2868,1465,1859,2062,1754,1880,1500,1568,2098,1410,2152,1461,1626,2041,1535,3238,1880,2073,1130,1737,1702,1225,2307,1313,1137,1057,1317,1099,1065,1839,1912,1717,1773,2556,1999,1350,2088,1243,1972,2472,1130,2047,1891,1314,1094,2377,2481,1138,1897,1746,2035,1727,1735,2053,1136,2968,2441,1618,2164,2175,2161,1874,1390,2078,2059,1955,1834,1065,2356,1299,2162,2304,1930,1463,3208,2358,2159,2115,1901,2008,1051,1712,1059,1418,2191,2006,1582,1529,2468,2619,2259,2068,1169,2365,1925,2087,1435,1944,1325,1918,1590,1372,1875,2682,1854,2741,1724,1963,2822,1826,1895,2592,1845,1801,2323,2016,2615,1474,2435,1919,1499,2070,2102,2087,2427,1687,2211,2054,1685,971,2621,1449,1735,1846,1898,1906,2509,1439,2441,1902,2954,1692,1497,1775,1967,1257,2484,2370,1082,1204,2074,2084,1972,1260,1838,2621,1803,2143,2117,2136,1638,1628,1769,1353,2129,1505,1286,1427,1714,1773,1986,2425,1358,3100,2158,2083,1592,2046,1912,1855,1981,2762,2880,2112,1287,2648,1746,2589,1477,2302,1720,1638,1356,1668,1533,1609,2189,3451,2425,1935,2066,1640,2266,1915,2852,1537,1909,1704,2458,1738,1327,2234,1832,2105,1588,1241,1932,651,1786,2023,1647,2001,2024,1808,1710,2042,1884,1117,2155,1381,1264,2145,1245,1401,1520,2643,1744,2402,2128,1124,2147,2884,1667,1822,1915,1676,2021,1912,2249,2194,771,1512,1459,2118,1279,1842,2520,2346,2173,1698,2132,1928,2259,1956,1874,2147,2352,2522,2848,1253,1684,1680,2352,1370,1427,1969,1815,1309,2201,1593,1535,2799,1545,1305,2122,2533,2461,1497,2444,1399,6710,2417,1581,1861,1446,2244,1397,1223,1678,2931,1569,1954,1813,2341,1780,1013,1809,2282,1768,2277,2367,1670,1625,2811,1792,1749,2079,2370,1471,1698,1612,2360,1590,2261,2185,1217,1146,1127,1872,2881,1914,2090,2037,2182,2149,1171,1458
1534,2418,2859,2402,1496,2581,1982,2481,3225,1891,1998,1640,2636,2569,3155,1605,1951,3199,3838,2305,2052,1781,2139,2932,2762,1906,1793,1606,2204,2080,1508,1689,1685,1689,1877,2520,2698,2318,3809,2629,2724,1802,2506,2279,2208,2637,1492,1515,2394,2066,2666,1303,2414,2074,2465,1913,2347,2501,1076,2104,1688,1509,2386,2140,2337,1589,1399,2727,1275,1827,1589,2287,1211,2469,1966,1942,2480,2466,2224,2581,2310,1769,1472,2667,2548,2036,2024,1665,1449,4311,3561,1908,2624,1556,1737,1937,1726,2032,1188,967,2254,2902,2085,2056,2861,2788,2520,1906,1675,2244,2472,1852,2203,2294,1176,2147,2567,2684,3368,1958,1582,1675,2449,1462,2020,2480,1994,2393,2770,2139,2175,2159,1524,2192,2471,3053,2723,1994,1725,1601,1657,2906,2580,1467,1608,2563,2232,2969,3621,2055,2428,1168,1891,1814,2581,2032,2723,1884,2063,1681,2462,2047,2592,2498,3324,1755,2625,2702,984,1886,1682,1521,1987,2134,2051,2612,4169,2451,1526,2131,2927,851,3213,1906,2323,1736,2209,2736,2077,2230,1529,1457,3793,2235,3253,2583,3058,2901,1825,2166,2060,5888,2461,3014,2387,2793,2277,2512,1654,2536,2459,2409,2441,3336,2309,1756,2715,2014,1601,2430,3237,1733,2391,2621,2197,2327,3232,2498,1934,2124,1927,2483,1714,1716,2114,2053,2475,2356,2554,2258,2099,2869,1948,2195,2621,1865,1994,2116,3220,1726,1687,1506,2184,1644,2326,2065,2447,1769,2515,2192,2674,1368,1028,2774,2677,2020,3323,2747,2339,2248,2334,2603,1470,1824,3200,2288,3296,1956,2600,2964,1342,1989,2231,1987,1960,3103,2522,1535,1411,2131,2196,2202,1915,2212,2467,3271,2158,1924,1983,2012,2535,1982,2679,2197,1413,2429,2066,2237,3160,2032,1904,2280,2229,2201,2542,1897,1718,2106,1453,2412,1447,1018,2227,1838,2665,3120,2356,1155,3513,1542,1977,2443,1261,1854,1717,1335,1586,1711,1628,1553,2715,2447,1813,2690,2737,2204,3631,2220,2375,3129,1731,1931,1655,2258,1300,2368,1261,2076,1917,2837,1705,2187,1537,1812,2415,2721,2291,1742,1983,2374,2142,2957,1784,1564,2776,2258,2079,2785,2108,2886,2093,2134,2621,2786,2326,1820,2961,2455,1539,2061,1610,2397,1723,1308,2218,1167,2607,1962,2340,2693,1906,2987,3386,2235,2402,2648,2346,1723,2418,2637,1277,1924,3009,2246,1972,1601,1837,1869,2814,1737,1694,1129,3662,2337,1858,1983,1999,2359,2423,1193,2235,1983,1754,3366,1974,2174,2548,2330,1315,3173,3347,2692,2158,2840,1576,3029,2523,2206,2294,2431,1222,2100,1330,1973,1477,1682,1965,2160,2200,2694,1092,4190,2357,1837,2697,2084,2746,1988,3213,2848,2214,1574,3094,1748,1475,1440,1753,2170,2696,2395,2164,1463,1868,2407,1505,2386,2652,1475,2594,2420,2316,1456,2620,1907,1920,2165,2201,2629,2219,1328,1968,2112,2235,2566,3037,1577,3058,1854,1209,1514,1730,2370,1283,2978,2201,1273,2725,2490,2670,3018,1943,2321,2420,2077,1705,2716,1436,1744,1692,1178,2403,2417,1573,2270,1538,1903,2187,4036,2723,1515,2359,799,2691,2729,1940,2069,2328,1920,1969,1205,2231,1982,2461,2624,1907,2462,2413,2154,2399,2797,4040,3059,1634,2163,2278,3674,1786,2640,2202,1491,1479,1447,3496,1173,1386,2407,2661,2101,2366,1543,1270,2256,1863,2791,1507,1960,1821,2804,2545,3203,1599,1797,1717,2155,2944,2350,792,2265,3296,2619,2196,1348,1283,1509,1705,1737,2134,2599,1975,2375,2006,0,2783,1852,2479,2377,1757,2514,1298,3089,2163,2331,1911,1569,2374,2110,2335,1667,1927,1535,3259,1193,1608,1012,2663,1670,996,1442,1592,2311,1778,4199,2237,2976,2464,2429,1460,2602,2108,960,1648,2495,1865,1933,2157,2223,2918,2040,2651,2830,2305,3149,2325,2689,1733,2490,1821,1395,2053,2307,2207,2289,2045,1388,2540,3356,2706,1059,2995,2849,1368,1654,2368,2350,1937,2623,2291,1348,2088,1846,1898,1844,2441,1672,2478,1774,2301,1403,2679,1953,2239,2401,2453,2002,2153,1673,2344,2227,1770,2029,2777,2509,3063,2171,1774,1770,2091,2700,2418,2127,2157,2066,1605,1960,3325,2318,2677,2689,1680,3133,2216,3538,2320,2553,3156,2770,1646,3204,1999,1798,2756,2306,2211,2529,2550,2145,2467,2194,2740,2453,2665,1432,1196,2279,1845,0,3073,1901,2319,3665,3308,3115,2070,947,1531,2332,2569,1754,1558,788,1307,2827,2413,1541,2429,2589,2391,2435,2043,3364,2539,2651,1451,3472,1804,996,2590,1712,2320,1982,3153,2291,2099,3058,3001,1656,1554,2520,2199,2223,2214,1491,1919,2524,2085,2310,1705,1396,1499,2648,2383,2665,1742,1631,2509,2696,2500,2582,2424,2412,2250,2360,2096,3104,1735,2966,1859,2316,2167,2784,3132,2466,2607,2375,1112,2936,2380,2106,2828,2016,1921,2356,2063,3620,2300,2526,3307,2212,2435,3435,3227,1197,1788,2208,2308,3213,3101,2958,2899,2359,2442,2427,2593,3491,1042,2373,3287,1802,2258,2537,2740,2332,2045,2071,1396,1851,3294,1895,2069,2645,1613,2424,1999,2375,2776,2851,1775,1896,3262,2437,3107,1947,2460,2393,1381,1713,1910,2410,2899,2338,2203,2416,2358,2365,2062,1764,3478,1626,1906,1938,1604,2577,2200,2917,2028,2090,1457,2581,2385,1633,2999,2393,2194,2378,2114,1788,2328,1651,1670,2286,3044,1043,2020,1582,1475,2218,1771,2499,1898,1928,3006,2542,1780,2087,2071,2139,2133,1357,1958,2906,2253,2320,2254,1809,3660,1528,2616,2776,2223,2356,1562,2581,1933,1879,2865,3455,2458,1998,1725,1564,2175,3597,1738,2727,2441,2402,2392,2123,2501,2381,2513,2077,1707,1418,2071,2342,3420,1361,3442,2254,1301,2068,3721,1386,2646,2111,2288,2150,2148,2023,2068,3494,2144,2323,2917,2450,2190,2578,4121,2644,2778,2196,2048,2343,3196,2656,1189,1912,1911,2152,2127,1047,2236,3785,2796,2042,1782,2368,1654,1616,2701,2898,2180,1767,2276,2124,2636,1345,1791,1292,2709,3156,2649,1271,1555,2736,2176,3460,1674,2613,2300,2430,2591,1006,1942,2310,2290,2236,2800,3218,1708,2435,2781,2195,2108,2379,2800,1764,1661,5846,1932,1466,2266,2394,2704,2779,2263,3452,2200,1295,1464,2958,3177,3931,1434,3013,2677,2652,1631,1556,1194,2000,2691,2346,2344,1722,2970,2096,2976,1718,2027,2141,2357,1461,2342,2316,2539,2769,2732,1679,3243,2295,1970,2027,2398,1995,2956,1851,1866,2215,2444,1248,2978,1960,2374,3258,2936,4757,1822,2167,1965,2278,2428,2381,1994,1247,2525,3238,1640,2117,2277,1984,2150,1688,1757,2389,1688,2436,3325,1950,2302,1713,3730,1976,2392,1269,2002,1823,1387,2591,1484,1300,1202,1478,1239,1192,2099,2166,2003,2057,2865,2330,1513,2614,1411,2237,2791,1267,2287,2142,1477,1222,2704,2710,1282,2104,1978,2330,1966,1969,2244,1287,3191,2771,1715,2497,2505,2408,2127,1565,2335,2269,2216,2176,1173,2680,1471,2435,2606,2220,1681,3594,2653,2416,2429,2197,2292,1176,2060,1195,1688,2428,2271,1711,1717,2783,3027,2548,2341,1319,2631,2194,2414,1630,2169,1495,2156,1824,1545,2105,3045,2052,3103,1961,2234,3188,2067,2142,2916,2073,2042,2616,2340,2931,1698,2756,2161,1681,2352,2341,2346,2696,1896,2493,2334,1994,1087,2980,1634,1973,2120,2187,2170,2846,1613,2749,2151,3334,1929,1727,2004,2226,1422,2573,2690,1212,1356,2356,2344,2246,1664,2052,2994,2137,2408,2423,2432,1883,1813,2054,1529,2391,1711,1425,1611,1902,1964,2199,2652,1441,3485,2485,2519,1873,2315,2166,2129,2269,3025,3208,2375,1456,0,1985,2898,1598,2615,1963,1850,1524,1886,1747,1760,2490,3911,2764,2194,2364,1721,2571,2170,3237,1674,2170,1935,2710,1998,1524,2535,2069,2369,1837,1402,2174,735,2014,2351,1978,2147,2257,2046,1995,2280,2165,1394,2419,1596,1431,2511,1399,1534,1954,2979,1984,2702,2418,1280,2407,3281,1894,2049,2153,1991,2293,2174,2551,2689,910,1670,1634,2349,1431,2082,2866,2661,2475,1907,2411,2219,2609,2204,2161,2462,2641,2814,3200,1409,1896,1962,2654,1540,1769,2245,2069,1432,2485,1793,1736,3175,1737,1475,2529,2871,2784,1674,2749,1580,7122,2758,1786,2121,1639,2380,1566,1380,1834,3349,1790,2220,2061,2550,2021,1130,2056,2567,2016,2565,2675,2017,1840,3167,2031,1975,2367,2755,1666,1928,1817,2662,1792,2554,2455,1535,1296,1270,2114,3243,2146,2357,2252,2330,2439,1283,1634
1699,2574,3088,2675,1672,2882,2211,2755,3595,2083,2211,1836,2943,2857,3282,1796,2190,3573,4276,2617,2267,1914,2386,3265,3016,2131,2099,1778,2471,2325,1639,1876,1888,1881,2113,2758,2957,2585,3995,2923,3028,2004,2802,2558,2484,2855,1660,1686,2657,2300,2984,1441,2585,2413,2757,2140,2624,3085,1257,2362,1879,1676,2652,2471,2639,1797,1553,3046,1378,2011,1764,2531,1304,2759,2196,2161,2761,2748,2578,0,2583,1967,1653,2912,2722,2264,2252,1845,1619,4697,3788,2124,2922,1738,1943,2142,1912,2284,1316,1066,2511,3233,2326,2279,3186,3133,2826,2040,1825,2467,2765,2066,2454,2514,1301,2458,2826,2974,3727,2234,1806,1846,2845,1627,2340,2792,2223,2693,3069,2401,2415,2387,1596,2459,2750,3404,3051,2231,1840,1780,2026,3057,2865,1643,1790,2842,2483,3349,4024,2295,2730,1238,2137,1945,2810,2289,3035,2159,2310,1882,2750,2272,2845,2779,3719,1896,2918,3042,1079,2101,1866,1693,2431,2371,2268,2994,4626,2722,1677,2374,3096,946,3582,1961,2730,2072,2461,2987,2333,2521,1686,1630,4243,2507,3523,2726,3406,3241,2155,2407,2367,6972,2768,3357,2449,2970,2481,2831,1847,2838,2663,2686,2720,3729,2577,1952,3064,2238,1789,2765,3614,1922,2681,2934,2439,2613,3626,2773,2149,2367,2238,2763,1944,1905,2193,2359,2757,2628,2822,2533,2263,3182,2193,2527,2914,2071,2172,2269,3585,1926,1776,1618,2430,1888,2640,2204,2714,2023,2805,2451,2803,1515,1138,3086,2979,2249,3706,3116,2622,2517,2613,2902,1634,2159,3569,2525,3694,2178,2836,3305,1499,2182,2482,2378,2190,3468,2768,1699,1582,2438,2450,2459,2228,2473,2727,3672,2419,2152,2269,2249,2832,2218,2978,2448,1581,2673,2281,2574,3514,2267,2062,2543,2502,2469,2821,2148,1975,2300,1625,2697,1609,1366,2485,2089,2961,3484,2640,1291,3904,1714,2209,2724,1406,2065,1892,1512,1748,1899,1836,1724,3018,2732,2017,3003,3041,2429,3963,2479,2624,3534,1929,2058,1824,2515,1441,2646,1501,2362,2130,3149,1906,2437,1711,2049,2690,3078,2675,1937,2199,2651,2384,3305,1990,1753,3199,2511,2349,3102,2347,3277,2331,2377,2847,3115,2564,2030,3301,2879,1777,2291,1857,2694,1914,1456,2472,1302,2876,2103,2679,2991,2292,3377,3733,2496,2671,2892,2607,1920,2729,2929,1425,2143,3379,2467,2188,1790,2034,2091,3199,1921,1862,1258,4096,2702,2080,2204,2220,2635,2702,1323,2464,2210,1950,3920,2122,2438,2895,2615,1366,3549,0,2935,2404,3211,1745,3290,2841,2487,2545,2693,1368,2220,1543,2290,1637,1888,2292,2407,2442,3007,1354,0,2557,2029,3146,2312,3071,2250,3593,3171,2466,1750,3458,1939,1650,1697,1950,2439,2994,2657,2421,1634,1923,2737,1680,2542,2991,1657,2918,2672,2392,1617,3059,2114,2150,2427,2472,2926,2484,1450,2259,2371,2490,2874,3412,1776,3403,2076,1354,1678,1938,2635,1430,3344,2461,1411,3023,2757,2973,3389,2136,2604,2696,2348,1965,3025,1607,1931,1895,1301,2707,2785,1762,2532,1704,2190,2450,4384,3024,1674,2628,886,2994,3059,2176,2329,2658,2151,2092,1382,2457,2296,2744,2932,2131,2725,2732,2417,2673,3201,4385,3549,1819,2442,2593,4159,1991,2927,2444,1686,1639,1623,3879,1306,1551,2686,2977,2358,2521,1721,1439,2518,2052,3107,1673,2308,2039,3301,2830,3445,1803,1995,1987,2395,3279,2608,881,2322,3528,2852,2364,1503,1423,1676,1892,2011,2384,2914,2216,2659,2317,0,3094,2087,2778,2684,1917,2660,1449,3407,2414,2603,2211,1751,2643,2342,2701,1963,2151,1711,3643,1345,1787,1131,2957,1860,1107,1601,1765,2657,2151,4664,2360,3323,2733,2691,1625,2891,2276,1063,1923,2775,2109,2133,2405,2478,3311,2189,2937,3159,2619,3423,2836,2984,1994,2793,2046,1605,2146,2576,2471,2539,2279,1539,2937,3726,2960,1173,3141,3115,1531,1836,2657,2827,2169,2916,2569,1495,2483,2071,2128,2070,2713,1911,2773,2039,2574,1561,3000,2186,2605,2672,2720,2232,2479,1871,2509,2498,1991,2248,3072,2818,3330,2428,2047,1975,2329,3013,2703,2470,2340,2314,1799,2204,3700,2578,2887,2993,1879,3510,2442,3975,2651,2700,3558,3091,1843,3643,2236,1972,3069,2573,2474,2777,2855,2374,2667,2433,3067,2751,2973,1607,1341,2557,2032,0,3414,2156,2552,4112,3695,3489,2303,1050,1708,2619,2867,1901,1916,874,1461,3164,2670,1707,2724,2863,2637,2690,2267,3761,2857,3090,1622,3864,1926,1111,2865,1896,2705,2198,3561,2540,2311,3445,0,1844,1731,2843,2366,2484,2468,1658,2161,2821,2264,2572,1901,1828,1663,2794,2663,2994,1914,1868,2721,2924,2664,2891,2684,2697,2500,2647,2219,3326,1933,3165,2067,2468,2426,2986,3514,2735,2695,2672,1234,3271,2665,2357,3156,2372,2182,2627,2369,3864,2588,2843,3688,2438,2818,3843,3594,1330,2012,2455,2565,3574,3444,3290,3287,2630,2725,2705,2895,3922,1153,2656,3673,1998,2534,2802,3040,2632,2358,2324,1553,2074,3664,2102,2309,2943,1861,2776,2219,2709,3116,3175,1971,2103,3639,2598,3518,2214,2712,2660,1465,1991,2120,2711,3252,2596,2463,2738,2632,2626,2319,1999,3871,1802,2157,2166,1783,2908,2330,3256,2269,2326,1844,2884,2649,1801,3339,2543,2458,2771,2388,2063,2610,1830,1854,2551,3417,1160,2151,1762,1641,2492,1970,2720,2117,2159,3348,2848,2037,2340,2312,2361,2364,1509,2273,3352,2497,2460,2518,2018,4069,1693,2917,3085,2556,2899,1746,2878,2042,2090,3191,3818,2746,2258,1939,1820,2491,4039,1877,3015,2713,2605,2678,2362,2779,2655,2754,2334,1860,1586,2320,2601,3799,1576,3835,2492,1413,2350,4145,1695,2823,2346,2549,2391,2399,2243,2346,3881,2391,2584,3620,2807,2265,2858,4584,2947,3126,2437,2288,2623,3564,2956,1315,2128,2087,2389,2383,1169,2434,4187,3109,2220,1991,2867,1913,1815,2897,3234,2446,1965,2456,2379,2940,1509,2146,1383,2989,3509,2892,1413,1785,3064,2511,3829,1858,2908,2573,2696,2900,1112,2225,2569,2551,2484,3158,3473,1925,2708,3071,2426,2352,2661,3089,1960,1739,6495,2180,1635,2630,2672,3048,3113,2529,3825,2475,1443,1624,3299,3546,4356,1548,3370,3040,2957,1816,1724,1328,2266,3010,2638,2649,1920,3156,2336,3315,1917,2303,2407,2624,1589,2611,2710,2764,3108,3054,1879,3642,2557,2108,2146,2667,2223,3248,2039,2004,2438,2799,1397,3323,2173,2655,3650,3289,5513,2023,2340,2186,2511,2704,2660,2187,1378,2684,3612,1817,2357,2592,2215,2425,1874,1948,2678,1898,2719,0,2176,2546,1936,4228,2155,2696,1404,2271,2176,1602,2876,1658,1449,1348,1636,1380,1321,2358,2418,2224,2343,3178,2596,1677,2868,1578,2495,3122,1398,2500,2388,1639,1351,3024,2938,1427,2304,2209,2563,2232,2224,2440,1440,0,3104,1867,2801,2806,2625,2383,1737,2593,2498,2473,2461,1263,3002,1644,2714,2904,2347,1865,3981,2877,2673,2738,2421,2581,1302,2185,1330,1959,2669,2542,1982,1907,3087,3295,2836,2612,1469,2888,2459,2564,1828,2387,1665,2397,2061,1718,2335,3407,2343,3458,2105,2504,3567,2309,2388,3238,2301,2284,2908,2605,3075,1924,3085,2410,1857,2641,2582,2706,2968,2111,2776,2615,2234,1202,3336,1818,2213,2341,2476,2718,3179,1787,3059,2366,3700,2165,1954,2228,2485,1598,2712,3008,1343,1511,2630,2602,2512,1958,2268,3353,2405,2673,2728,2727,2123,1951,2234,1703,2653,1933,1608,1799,2118,2235,2420,2874,1551,3858,2798,2723,2094,2595,2426,2401,2536,3305,3539,2646,1624,0,2226,3210,1928,2850,2184,2066,1693,2101,1962,1996,2766,4380,3108,2454,2675,1864,2871,2428,3626,1793,2430,2165,3083,2263,1734,2841,2226,2634,1970,1563,2418,818,2239,2671,2187,2457,2490,2273,2222,2533,2303,1599,2685,1811,1596,2798,1558,1659,2306,3330,2224,3002,2711,1438,2719,3707,2116,2286,2376,2242,2580,2423,2723,2979,1073,1941,1809,2672,1583,2336,3220,2977,2777,2064,2698,2524,2951,2450,2486,2746,2930,3095,3558,1567,2107,2201,2950,1709,1938,2523,2294,1651,2771,1990,1939,3566,1928,1644,2853,3196,3095,1850,3057,1762,0,3071,1976,2375,1832,2731,1740,1536,2163,3794,2006,2493,2300,2886,2267,1249,2294,2852,2258,2725,2981,2187,2050,3509,2271,2201,2657,2999,1862,2047,2031,2967,1994,2842,2734,1720,1454,1413,2345,3596,2377,2603,2346,2478,2733,1382,1809
1867,2883,3467,2956,1847,3182,2396,3028,3969,2484,2350,2023,3247,3179,0,1987,2369,3945,4710,2807,2508,2041,2629,3576,3419,2354,2334,1951,2737,2566,1708,2061,2090,2072,2350,3056,3316,2849,4138,3226,3323,2188,3081,2807,2745,3194,1830,1857,2918,2543,3301,1579,2930,2585,3050,2259,3167,3164,1622,2615,2079,1844,2921,2783,2946,2005,1705,3357,1574,2221,1939,2773,1386,3048,2430,2381,3043,3029,2821,0,2716,2174,1834,3212,2905,2498,2480,2023,1789,4942,4049,2348,3224,1918,2153,2360,2095,2492,1446,1164,2768,3561,2569,2548,3561,3211,3131,2424,2039,2760,3058,2282,2682,2799,1428,2769,3074,3263,4145,2402,2063,2017,3223,1792,2555,2950,2453,2879,3366,2662,2651,2613,1747,2727,3034,3758,3381,2386,2080,1958,2207,3338,3156,1817,1972,3120,2631,3728,4419,2533,3028,1377,2378,2076,3077,2547,3308,2312,2556,2083,3039,2497,3155,3063,4116,1966,3211,3377,1186,2316,2048,1867,2637,2605,2498,3289,5113,2985,1896,2536,3428,1040,3944,2125,2930,2251,2716,3301,2595,2807,1844,1802,4689,2781,3850,3092,3747,3575,2430,2655,2659,7332,3076,3693,2599,3363,2707,3008,2038,3138,3006,2957,2997,4107,2799,2148,3419,2401,1978,3135,3989,2115,2969,3246,2689,2768,3887,3046,2365,2606,2351,3044,2147,2098,2381,2537,3041,2899,3076,2797,2426,3503,2586,2702,3212,2283,2443,2583,3930,2124,2016,1913,2654,2048,2838,2481,2989,2269,3091,2618,3112,1658,1259,3394,3298,2475,3882,3434,2896,2792,2895,3171,1796,2382,3932,2762,4083,2396,3076,3646,1654,2260,2732,2646,2418,3831,3106,1860,1755,2751,2710,2709,2457,2731,3001,4064,2689,2381,2513,2482,3121,2451,3255,2698,1750,3054,2497,2726,3868,2503,2306,2801,2772,2896,3110,2403,2241,2487,1798,2993,1771,1483,2745,2238,3262,3851,2923,1425,4309,1886,2437,2969,1558,2275,2044,1694,1902,2090,2046,1906,3307,3014,2217,3314,3350,2701,4089,2753,2875,3909,2128,2347,1966,2777,1582,2918,1736,2654,2340,3466,2108,2688,1882,2244,2967,3304,3022,2114,2414,2928,2629,3647,2195,1834,3554,2686,2621,3419,2585,3663,2566,2507,3067,3439,2852,2243,3648,3010,1912,2521,2042,2993,2108,1602,2731,1437,3136,2419,3020,3286,2512,3762,4052,2722,2935,3204,2868,2124,2972,3209,1571,2360,3747,2688,2410,1980,2172,2314,3585,2106,2030,1394,0,2960,2300,2419,2449,2910,2920,1453,2756,2400,2147,4193,2432,2696,3209,2871,1475,3930,0,3176,2650,3569,1914,3558,3113,2737,2806,2954,1513,2575,1759,2606,1799,2096,2510,2654,2681,3325,1628,0,2755,2296,3472,2540,3417,2511,3956,3487,2720,1924,3819,2130,1826,1951,2150,2571,3293,2951,2682,1806,2033,3072,1854,2917,3600,1838,3250,2913,2522,1778,3270,2331,2379,2578,2747,3182,2743,1576,2497,2623,2746,3182,3790,1965,3592,2297,1501,1843,2148,3165,1576,3718,2717,1547,3320,3030,3275,3739,2380,2884,2973,2507,2157,3326,1782,2119,2064,1429,3017,3056,1945,2792,1869,2409,2706,4729,3304,1834,2867,973,3298,3261,2306,2588,2946,2382,2346,1566,2679,2611,3024,3223,2352,2994,3058,2681,2957,3608,4884,4027,2001,2725,2909,4568,2405,3302,2676,1880,1800,1791,4201,1438,1715,2979,3294,2599,2828,1900,1558,2780,2241,3422,1837,2469,2260,3538,3112,3591,1934,2192,2109,2636,3615,2864,975,2536,4010,3210,2723,1659,1564,1844,2079,2237,2638,3222,2338,2854,2451,0,3392,2290,3080,2990,2166,0,1599,3734,2662,2877,2349,1935,2916,2572,2956,2248,2376,1886,4018,1496,1965,1249,3253,2042,1214,1760,1938,3020,2335,5133,2673,3569,2995,2922,1789,3184,2551,1167,2202,3042,2409,2327,2649,2733,3706,2476,3162,3437,2906,3721,3079,3288,2148,3085,2271,1819,2297,2850,2732,2791,2514,1691,3132,4071,3171,1286,3398,3367,1694,2047,2956,3003,2403,3211,2848,1644,2754,2292,2358,2297,3023,2094,3070,2221,2846,1717,3297,2426,2803,2929,2985,2369,2799,2067,2828,2692,2300,2469,3367,3057,3486,2684,2259,2156,2571,3319,2977,2756,2670,2504,1996,2512,4079,2840,3010,3317,2074,3884,2712,4436,2789,3093,3959,3383,2040,4082,2473,2142,3384,2833,2731,3089,3132,2685,2931,2671,3385,3052,3284,1779,1487,2831,2236,0,3614,2420,2786,4558,4068,3863,2517,1153,1866,2930,3164,2176,2092,958,1615,3435,2928,1876,3016,3145,2882,2946,2490,4169,3196,3430,1791,4252,2184,1225,3145,2080,2991,2420,3914,2790,2500,3845,0,2031,1912,3167,2448,2709,2725,1824,2410,3147,2620,2837,2101,1972,1828,3046,2944,3307,2129,2124,3053,3300,3037,3198,2955,2979,2745,2944,2347,3556,2156,3227,2274,2867,2686,3407,3900,3000,2896,2954,1356,3607,2945,2447,3481,2564,2341,2902,2614,4399,2872,3150,4074,2729,3210,4202,3962,1468,2179,2697,2802,3898,3786,3622,3646,2899,3005,2981,3196,4318,1265,2931,4071,2193,2807,3094,3343,2928,2672,2586,1711,2297,4034,2426,2551,3248,2002,3079,2439,3047,3478,3499,2164,2305,4054,2948,3906,2485,2843,2925,1709,2202,2332,2990,3571,2827,2718,3059,2893,2887,2575,2189,4250,1977,2408,2393,1975,3239,2588,3597,2522,2567,2107,3179,2917,1971,3681,2875,2732,2941,2664,2240,2867,2007,2042,2813,3791,1274,2495,1939,1810,2771,2168,3084,2340,2385,3687,3148,2293,2591,2557,2584,2586,1735,2420,3740,2741,2704,2770,2228,4540,1858,3218,3390,2830,3198,1928,3186,2182,2307,3525,4171,3041,2457,2150,1894,2925,4482,2126,3351,2992,2924,2972,2598,3073,2926,3078,2558,2008,1761,2570,2857,4177,1718,4205,2713,1502,2619,4569,1792,2933,2585,2811,2636,2684,2463,2620,4266,2629,2843,3814,3112,2442,3137,5055,3258,3477,2678,2445,2904,3936,3263,1440,2340,2351,2636,2673,1254,2865,4363,3397,2555,2202,3348,2166,1961,3290,3555,2712,2163,0,2635,3254,1674,2327,1456,3279,3868,3226,1554,1971,3393,2854,4193,2044,3213,2842,2956,3248,1221,2479,2831,2841,2741,3446,3856,2135,2973,3398,2656,2486,2946,3406,2152,1881,7148,2424,1806,2948,2949,3397,3409,2755,4214,2854,1589,1785,3447,3912,4770,1661,3705,3403,3263,2001,1874,1462,2442,3328,2930,2869,2120,3609,2581,3647,2114,2437,2664,2892,1809,2881,2857,3032,3462,3375,2078,4049,2812,2242,2463,2937,2447,3467,2228,2312,2658,3082,1550,3514,2374,2935,4016,3643,6441,2217,2574,2405,2828,2981,2882,2397,1517,3081,3980,1998,2622,2846,2447,2691,2060,2138,2971,1967,2999,0,2406,2831,2129,4692,2300,3013,1539,2534,2317,1751,2947,1833,1598,1494,1796,1521,1449,2631,2669,2531,2630,3509,2858,1841,3113,1747,2750,3439,1528,2757,2631,1800,1481,3342,3171,1570,2506,2440,2903,2486,2502,2769,1592,0,3434,2070,3084,3032,2907,2639,1908,2849,2851,2730,2738,1348,3327,1802,2983,3202,2758,2075,4354,3098,2935,3058,2641,2874,1426,2517,1465,2231,2908,2802,2113,2096,3372,3704,3123,2882,1621,3182,2730,2694,2039,2598,1835,2635,2295,1891,2566,3772,2698,3825,2408,2777,3961,2548,2630,3560,2529,2526,3201,2870,3545,2150,3408,2663,2037,2933,2822,3032,3238,2339,3063,2899,2466,1324,3705,2003,2453,2591,2784,2990,3517,1963,3370,2651,4073,2401,2179,2449,2746,1777,2784,3326,1473,1663,2906,2864,2762,2219,2486,3729,2666,2937,3029,3021,2361,2125,2519,1872,2913,2127,1770,1988,2356,2424,2659,3105,1746,4272,3108,2935,2379,2730,2682,2645,2831,3661,3870,2923,1793,0,2466,3519,2084,3310,2389,2286,1863,2321,2177,2195,3067,4838,3438,2710,2968,2094,3170,2686,4019,2059,2689,2390,3406,2528,1899,3148,2508,2901,2231,1725,2656,901,2466,2978,2385,2711,2650,2501,2440,2811,2657,1794,2957,2027,1759,3004,1715,1744,2459,3684,2462,3300,3011,1596,3006,4129,2331,2496,2637,2489,2865,2677,3082,3233,1160,2148,1987,2950,1737,2590,3547,3296,3071,2363,2986,2691,3266,2596,2678,2967,3215,3381,3906,1724,2320,2442,3243,1879,2108,2798,2567,1776,3059,2186,2140,3958,2118,1812,3188,3399,3405,2033,3365,1944,0,3400,2162,2524,2024,3010,1911,1690,2269,4235,2221,2763,2543,3228,2423,1365,2520,3139,2501,3116,3278,2313,2264,3857,2511,2427,2946,3230,2060,2367,2241,3272,2194,3131,2994,1834,1605,1556,2572,3960,2609,2862,2523,2654,3026,1474,1985
2040,3145,3783,3236,2025,3483,2655,3303,4330,2664,2643,2217,3545,3413,0,2177,2622,4307,5149,3094,2786,2327,2878,3888,3704,2574,2562,2123,3002,2808,1831,2132,2292,2263,2586,3353,3663,3117,4468,3536,3619,2384,3213,3110,3016,3504,1999,2029,3179,2764,3614,1721,3099,2752,3339,2595,3422,3373,1874,2868,2264,2010,3188,3089,3253,2212,1857,3668,1726,2435,2112,3017,1669,3297,2664,2602,3302,3296,3053,0,2908,2380,2015,3535,3150,2730,2708,2196,1961,5333,4314,2581,3515,2101,2364,2569,2279,2734,1572,1263,3022,3886,2810,2790,3904,3473,3426,2614,2249,3019,3349,2724,2830,3343,1556,3077,3324,3558,4537,2655,2415,2190,3429,1957,2779,3402,2680,3215,3662,2928,2888,2837,1894,2994,3307,4110,3714,2728,2276,2137,2387,3729,3445,1992,2150,3387,2903,3971,4814,2768,3339,1515,2617,2208,3593,2803,3737,2497,2802,2289,3330,2724,3440,3365,4501,2057,3505,3698,1296,2531,2232,2043,2838,2838,2735,3586,5596,3233,2070,2850,3747,1133,4322,2351,3128,2439,2969,3436,2714,3112,2004,1974,5131,3054,4224,3389,4096,3875,2705,2899,2947,7695,3358,4030,2665,3697,3075,3182,2230,3433,3282,3235,3266,4485,3111,2343,3776,2586,2168,3290,4368,2311,3255,3554,2948,3078,4291,3279,2581,2835,2663,3231,2307,2295,2631,2606,3331,3167,3316,3059,2587,3832,2796,3050,3507,2501,2593,2850,4297,2323,2266,2018,2722,2231,3227,2722,3270,2501,3376,2862,3271,1804,1367,3710,3584,2700,4340,3762,3182,3063,3175,3453,1959,2608,4297,3000,4482,2613,3319,3819,1810,2478,2984,2908,2649,4194,3274,2020,1933,3070,2970,2847,2645,2986,3263,4438,2952,2609,2757,2715,3413,2687,3539,2949,1918,3359,2711,2986,4222,2741,2569,3061,3046,3160,3345,2663,2508,2675,1972,3280,1931,1600,3005,2488,3551,4216,3202,1559,4793,2061,2666,3245,1709,2484,2237,1876,2053,2282,2249,2092,3596,3288,2422,3623,3661,2981,4246,2882,3127,4343,2324,2475,2212,3045,1723,3189,1854,2948,2549,3781,2341,2939,2019,2445,3243,3698,3369,2335,2630,3205,2876,3992,2402,1940,3907,2994,2893,3720,2823,3867,2804,2635,3285,3766,3119,2461,3983,3308,2143,2750,2173,3291,2304,1666,2873,1572,3395,2644,3338,3590,2963,4146,4402,2980,3198,3522,3131,2334,3324,3482,1713,2575,3963,2926,2631,2167,2434,2500,3986,2289,2197,1534,0,3122,2463,2637,2673,3179,3152,1582,2939,2631,2344,4469,2687,2958,3523,3228,1676,4314,0,3656,2898,3945,2082,3833,3432,2980,3062,3220,1657,2816,1968,2923,1961,2302,2720,2893,2916,3640,1907,0,2961,2586,3797,2770,3644,2770,4324,3658,2973,2097,4175,2318,2004,2142,2509,2882,3582,3269,2939,1978,2189,3401,2028,3235,3850,2020,3582,3150,2661,1935,3479,2554,2607,2868,3033,3468,3001,1699,2736,2875,3003,3480,4161,2087,3876,2516,1648,2008,2362,3427,1728,4100,2984,1684,3617,3303,3576,4107,2568,3165,3249,2770,2340,3624,1957,2307,2237,1554,3332,3191,2132,3051,2034,2578,2952,5070,3613,1992,3100,1061,3610,3627,2593,2837,3135,2609,2565,1749,2928,2927,3299,3562,2572,3266,3390,2810,3240,4000,5384,4496,2178,3000,3224,4981,2617,3637,2906,2076,1968,1973,4553,1573,1878,3278,3615,2825,3127,2084,1679,3045,2420,3733,2001,2801,2477,4057,3396,3940,2129,2388,2372,2876,3950,3104,1064,2807,4239,3524,2891,1816,1705,2010,2266,2461,2901,3545,2711,3174,2792,0,3698,2561,3273,3294,2577,0,1751,0,2904,3150,2655,2122,3190,2798,3264,2538,2602,2059,4401,1648,2145,1367,3549,2224,1323,2099,2110,3226,2706,5592,2806,3902,3260,3213,1953,3478,2657,1270,2461,3321,2742,2537,2871,2993,4103,2624,3530,3698,3194,4121,3330,3598,2404,3360,2454,2033,2530,3124,2992,2996,2745,1843,3529,4391,3372,1400,3647,3609,1857,2233,3255,3393,2667,3506,2993,1794,3021,2513,2584,2524,3272,2304,3370,2488,3120,1874,3601,2663,3129,3188,3249,2707,3115,2263,3108,3079,2564,2692,3662,3388,3875,2816,2406,2384,2807,3637,3259,3022,2862,2847,2190,2643,4453,3109,3353,3615,2191,4254,2951,4880,3122,3252,4318,3646,2236,4520,2710,2476,3704,3093,2989,3338,3373,2943,3181,2910,3713,3356,3595,1952,1633,3109,2360,0,4017,2690,3122,5010,4476,4232,2778,1255,2044,3259,3462,2324,2269,1043,1768,3719,3189,2054,3314,3428,3126,3201,2711,4555,3536,3725,1962,4636,2372,1340,3432,2267,3282,2644,4296,3036,2739,4227,0,2219,2096,3484,2693,3003,2917,1990,2659,3455,2776,3102,2300,2114,1994,3292,3219,3626,2351,2394,3348,3585,3324,3498,3231,3262,2985,3241,2489,3785,2329,3552,2481,3006,2941,3609,4286,3266,3157,3189,1478,3940,3096,2535,3806,2743,2414,3171,2747,4657,3163,3472,4471,2995,3375,4646,4326,1605,2377,2924,3044,4275,4129,3946,4044,3164,3288,3258,3494,4697,1376,3213,4459,2322,3080,3372,3644,3222,2971,2840,1869,2525,4403,2515,2786,3553,2405,3387,2660,3386,3812,3823,2360,2658,4505,3223,4279,2753,3161,3194,1809,2413,2547,3269,3907,3068,2976,3379,3156,3152,2829,2451,4625,2153,2660,2616,2168,3564,2846,3927,2790,2811,2228,3472,3182,2146,4018,3149,3012,3306,2923,2577,3107,2185,2225,3076,4168,1391,2755,2115,1978,3048,2366,3266,2565,2620,4033,3447,2546,2843,2802,2806,2796,1887,2737,4124,2987,2971,3031,2441,4994,2031,3517,3629,3033,3510,2110,3502,2283,2525,3859,4576,3332,2774,2359,2069,3083,4924,2319,3665,3265,3194,3252,2830,3364,3200,3319,2923,2244,1938,2819,3169,4548,1830,4583,2978,1613,2766,4991,1903,3007,2829,3061,2883,2951,2686,2901,4655,2843,3102,4040,3396,2615,3417,5535,3576,3820,2918,2691,3185,4305,3557,1564,2549,2546,2791,2945,1392,3074,4641,3712,2713,2409,3580,2354,2343,3605,3873,2976,2368,0,2888,3569,1841,2459,1679,3556,4246,3530,1696,2170,3726,3188,4548,2231,3512,3112,3221,3554,1329,2727,3093,3151,3000,3865,4210,2348,3238,3683,2891,2782,3231,3725,2357,2117,0,2662,1976,3109,3210,3750,3692,3062,4607,3161,1735,1949,3660,4276,5181,1774,4055,3685,3567,2183,2043,1596,2717,3646,3223,3180,2320,3973,2832,4020,2310,2586,2922,3161,1982,3151,3247,3285,3714,3693,2277,4385,3078,2589,2781,3193,2673,3763,2412,2527,2880,3365,1703,3863,2580,3209,4402,3997,7249,2416,2807,2622,3135,3261,3201,2586,1651,3425,4353,2178,2852,2991,2679,2960,2440,2328,3265,2240,3282,0,2641,3096,2340,5171,2426,3325,1671,2797,2621,1843,3161,2009,1695,1641,1954,1661,1577,2855,2921,2817,2920,3838,3114,2005,3358,1915,3002,3762,1659,2977,2882,1961,1611,3636,3409,1714,2723,2671,3183,2610,2752,3027,1745,0,3763,2458,3372,3178,3168,2894,2078,3106,3180,2991,2898,1401,3650,1968,3291,3499,3034,2255,4724,3389,3196,3363,2854,3152,1550,2649,1601,2500,3145,3066,2367,2286,3662,3964,3413,3157,1772,3478,3001,3054,2249,2810,2005,2876,2528,2064,2797,4122,2872,4191,2650,3051,4336,2785,2876,3883,2757,2766,3494,3138,3868,2377,3743,2913,2214,3223,3307,3298,3507,2567,3350,3177,2612,1441,4041,2188,2693,2807,3085,3253,3858,2141,3677,2905,4466,2633,2403,2670,3007,1954,2928,3643,1604,1813,3189,3133,3003,2477,2701,4107,2874,3200,3319,3317,2596,2262,2702,2040,3173,2342,1903,2177,2524,2695,2932,3574,1937,4676,3410,3153,2610,3107,2936,2885,3134,4008,4192,3207,1962,0,2705,3831,2199,3379,2576,2510,2033,2543,2392,2347,3342,5294,3762,2969,3274,2326,3448,2929,4407,2267,2884,2607,3701,2793,2091,3456,2733,3167,2365,1888,2894,984,2681,3144,2602,2964,2964,2738,2653,3077,2930,1925,3225,2247,1923,3370,1873,1835,2604,4047,2704,3600,3313,1671,3295,4526,2559,2677,2876,2735,3033,2937,3391,3721,1306,2355,2165,3225,1891,2844,3891,3617,3377,2588,3275,2862,3595,2892,3016,3263,3349,3685,4254,1882,2533,2593,3542,2049,2277,3065,2864,1898,3203,2340,2263,4323,2309,1981,3521,3773,3724,2241,3673,2127,0,3719,2349,2849,2215,3259,2152,1844,2603,4603,2439,3028,2786,3571,2710,1486,2742,3423,2652,3431,3584,2654,2476,4219,2751,2652,3149,3474,2256,2568,2327,3581,2596,3318,3264,1942,1758,1699,2847,4312,2836,3115,2752,3000,3319,1687,2155
2222,3553,4105,3506,2200,3783,2888,3580,4701,3029,2882,2401,3702,3702,0,2363,2783,4674,5585,3279,3010,2562,3124,4077,4050,2796,2700,2296,3262,3047,1967,2248,2493,2457,2821,3619,3982,3380,4799,3845,3906,2564,3601,3379,3219,3808,2168,2199,3423,2984,3923,1864,3442,2919,3632,2818,3666,3654,2186,3122,2453,2177,3456,3387,3388,2419,2009,3986,1888,2650,2287,3264,1897,3619,2893,2823,3567,3622,3188,0,3059,2590,2195,3763,3449,2963,2935,2368,2135,5676,4914,2809,3712,2282,2574,2784,2461,2998,1701,1362,3274,4212,3050,2979,4240,3815,3718,2991,2458,3279,3638,2924,0,3606,1683,3390,3578,3845,4925,2798,2547,2363,3621,2123,3184,3696,2908,3515,3958,3174,3123,3057,2064,3156,3584,4462,4050,2987,2413,2316,2568,4018,3737,2162,2326,3668,3182,4390,5218,2997,3596,1655,2784,2337,3819,3055,4106,2628,3050,2493,3621,2952,3686,3653,4884,2177,3797,4024,1370,2746,2416,2219,0,3067,2971,3823,6082,3490,2215,3086,4060,1228,4665,2571,3330,2766,3229,3615,2855,3410,2163,2146,5477,3311,4616,3670,4440,4237,2979,3139,3231,0,3639,4375,2747,3868,3396,3579,2419,3730,3560,3515,3538,4845,3392,2539,4127,2799,2357,3610,4744,2508,3541,3853,3202,3370,4583,3583,2796,3084,2773,3620,2543,2488,2763,2852,3619,3439,3589,3323,2749,4160,3062,3216,3802,2715,2900,3122,4666,2524,2512,2122,2884,2451,3529,2955,3549,2734,3655,3117,3575,1954,1484,4033,3778,2927,4725,4103,3474,3335,3451,3752,2122,2839,4667,3235,4869,2739,3564,4299,1966,2726,3234,0,2881,4594,3671,2180,2111,3378,3231,3096,2924,3246,3537,4839,3209,2838,3003,2950,3703,2918,3839,3199,2090,3663,2924,3323,4576,2976,2795,3324,3319,3416,3641,2907,2776,3000,2145,3573,2092,1717,3265,2627,3849,4585,3485,1694,5206,2232,2897,3566,1858,2691,2407,2060,2203,2476,2441,2266,3899,3572,2630,3932,3968,3198,4425,3208,3378,4749,2522,2758,2379,3310,1865,3464,2016,3244,2763,4093,2544,3191,2221,2646,3519,4006,3673,2535,2766,3483,3178,4338,2608,2127,4254,3246,3168,4022,3058,4119,3047,2863,3532,4096,3359,2683,4291,3736,2278,2978,2419,3596,2501,1750,3126,1706,3662,2865,3658,3902,3175,4350,4728,3238,3477,0,3394,2538,3502,3747,1857,2791,4368,3168,2853,2314,2648,2760,4354,2473,2364,1731,0,3484,2710,2857,2894,3452,3436,1711,3230,2897,2542,4750,2922,3225,3834,3561,1756,4659,0,3898,3146,4307,2250,4115,3729,3220,3545,3492,1803,3055,2180,3249,2129,2511,2933,3129,3148,3965,2204,0,0,2744,4114,3000,3964,3027,4694,4057,3221,2270,4534,2513,2180,2213,2665,3142,3865,3545,3197,2148,2446,3723,2203,3546,4214,2200,3909,3395,2914,2093,3694,2772,2835,3131,3359,3750,3254,1822,2972,3132,3251,3776,4537,2318,4227,2740,1794,2170,2581,3683,1881,4470,3118,1821,3914,3566,3722,4472,2812,3448,3525,2926,2519,3924,2131,2494,2357,1678,3644,3549,2316,3408,2201,2765,3198,5404,3921,2150,3338,1149,3921,3995,2835,3086,3461,2840,2781,1934,3143,3241,3572,3884,2796,3539,3713,3078,3521,4383,5891,4944,2355,3284,3538,5394,2827,3971,3128,2273,2122,2148,4891,1708,2041,3567,3930,3059,3405,2270,1808,3310,2595,4043,2165,2964,2697,4305,3681,4320,2259,2581,2494,3531,4283,3378,1155,3043,4718,3747,3251,1975,1847,2178,2401,2690,3162,3870,2970,3436,3023,0,3998,2792,3379,3596,2776,0,1903,0,3142,3414,2794,2315,3462,3025,3547,2826,2829,2238,4776,1711,2322,1483,3843,2403,1433,2285,2283,3392,2891,6069,3222,4297,3535,3470,2118,3771,2911,1374,2990,3598,2936,2710,3112,3252,4498,2913,3817,3952,3469,4416,3605,3893,2560,3617,2672,2249,2627,3392,3250,3291,2977,1994,3721,4722,3744,1516,3829,3851,2020,2444,3546,3804,2898,3800,3318,1944,3153,2735,2806,2747,3462,2517,3665,2671,3394,2032,3939,2900,3391,3449,3513,2950,3435,2459,3376,3429,2816,2917,3955,3528,4416,3171,2713,2574,3042,3949,3549,3286,3192,3096,2377,2943,4823,3372,3510,3851,2277,4630,3206,5319,3435,3394,4684,4008,2433,4941,2946,2541,3999,3355,3248,3654,3657,3236,3474,3151,4042,3663,3906,2122,1779,3391,2633,0,4208,2950,3373,5443,4861,4604,3022,1359,2206,3554,3760,2597,2446,1128,1920,4031,3452,2221,3610,3704,3373,3455,2932,4933,3876,4020,2132,4820,2492,1453,3719,2459,3555,2876,4684,3278,2947,4615,0,2410,2282,3809,2821,3268,3239,2154,2907,3752,3006,3369,2495,2259,2159,3585,3440,3940,2821,2657,3664,3888,3487,3791,3497,3548,3230,3503,2951,4020,2530,3927,2689,3400,3201,4023,4672,3534,3465,3484,1599,4210,3410,2707,4130,2930,2644,3444,3055,5192,3456,3610,4845,3252,3542,4998,4698,1744,2574,3143,3290,4675,4464,4245,4450,3451,3569,3534,3793,5060,1488,3487,4854,2555,3344,3652,3746,3521,3277,3103,2029,2751,4774,2718,2972,3853,2655,3696,2878,3723,4146,4146,2557,2919,4917,3491,4659,3015,3468,3465,2094,2617,2762,3562,4245,3323,3236,3696,3419,3418,3073,2684,4976,2330,2908,2840,2357,3880,3101,4255,3068,3055,2300,3772,3443,2322,4363,3411,3301,3514,3221,2752,3395,2363,2420,3339,4538,1509,2953,2295,2145,3315,2564,3620,2796,2838,4373,3752,2806,3096,3047,3090,3015,2108,2882,4508,3232,3236,3265,2653,5442,2211,3815,3991,3389,3748,2294,3646,2425,2741,4185,4979,3619,3031,2567,2317,3399,5363,2515,3939,3539,3467,3540,3062,3642,3470,3641,3177,2490,2118,3068,3429,0,1937,4961,3221,1705,3054,5414,1958,3162,3077,3305,3126,3193,2906,3169,5042,3141,3362,4247,3540,2762,3694,6008,3888,4152,3158,2926,3464,4672,3856,1689,2758,2730,3050,3196,1509,3289,5046,4029,3018,2622,3810,2547,2466,3922,4182,3241,2569,0,3138,3881,2009,2738,1763,3837,4571,3746,1836,2337,4065,3337,4899,2418,3809,0,3483,3801,1436,2978,3357,3459,3259,4219,4578,2561,3506,4011,3130,3023,3519,4071,2561,2367,0,2895,2150,3472,3495,4104,3962,3328,4999,3321,1881,2113,3983,4642,5596,1887,4417,4073,3872,2362,2230,1731,2934,3964,3516,3448,2522,4344,3096,4388,2507,2840,3184,3430,2155,3420,3517,3521,4080,4015,2477,4644,3353,2728,2867,3471,2906,3982,2597,2737,3105,3588,1859,4114,2792,3477,4804,4350,7511,2605,2969,2843,3376,3536,3469,2779,1783,3582,4726,2359,3119,3206,2913,3232,2629,2520,3552,2510,3564,0,2877,3365,2598,5638,2688,3485,1804,3062,2923,2000,3446,2186,1894,1791,2110,1801,1706,3126,3175,3094,3215,4165,3375,2170,3606,2083,3254,4071,1788,3255,3135,2123,1739,3924,3654,1857,2859,2905,3467,2879,3002,3279,1899,0,4092,2777,3674,3554,3431,3154,2247,3362,3488,3251,3221,1496,3974,2135,3554,3799,3304,2476,5128,3596,3460,3671,3073,3425,1672,2958,1737,2767,3383,3329,2494,2475,3963,4368,3702,3425,1925,3849,3271,3398,2447,3025,2171,3005,2742,2235,3029,4460,3093,4551,2887,3324,4682,2991,3121,4206,2986,3006,3786,3410,4184,2604,4078,3155,2393,3514,3550,3655,3993,2789,3635,3449,2896,1562,4432,2374,2934,3035,3375,3515,4197,2323,3984,3078,4834,2867,2624,2891,3133,2124,3000,3960,1734,1962,3467,3402,3248,3012,2919,4472,3183,3458,3592,3612,2832,2538,2992,2208,3435,2587,2088,2365,2768,2884,3215,4025,2131,5078,3703,3602,2901,3239,3191,3162,3420,4386,4515,3490,2098,0,2946,4140,2481,3646,2820,2739,2204,2763,2603,2584,3644,5744,4096,3227,3547,2563,3735,3178,4800,2505,3145,2816,4003,3051,2263,3758,2954,3433,2619,2050,3132,1067,2897,3469,2822,3220,3223,2962,2820,3345,3202,2087,3496,2469,2090,3654,2029,1915,2754,4382,2949,3893,3619,1753,3571,4960,2786,2830,3117,2981,3415,3184,3700,4065,1446,2524,2346,3501,2048,3095,4205,3934,3669,2811,3560,3125,3913,3146,3318,0,3703,3964,4611,2040,2748,2877,3854,2219,2444,3343,3020,2117,3582,2575,2508,4697,2503,2149,3818,4104,4040,2450,3979,2309,0,4066,2539,3077,2404,3403,2199,1998,2726,4976,2660,3290,3026,3914,2959,1604,2960,3708,2926,3739,3890,2824,2692,4570,2995,2876,3479,3716,2452,2761,2450,3885,2791,3668,3537,2056,1908,1842,3051,4674,3068,3365,3017,3338,3607,1810,2330
2417,3703,4368,3776,2377,4083,3131,3853,5068,3201,3115,2581,4138,3989,0,2548,3033,5032,6022,3563,3330,2796,3369,4416,4390,3019,2882,2469,3531,3230,2024,2429,2695,2655,3056,3856,4290,3640,5133,4143,4184,2736,3873,3645,3448,4099,2337,2368,3660,3204,4237,2004,3609,3086,3924,3043,3906,3937,2489,3378,2648,2344,3729,3543,3617,2627,2159,4301,2048,2865,2459,3511,2123,3841,3126,3044,3832,3953,3500,0,3334,2794,2375,3959,3758,3196,3156,2538,2314,6058,5165,3037,4069,2464,2784,3003,2644,3267,1832,1460,3529,4537,3295,3178,4569,4160,4013,3304,2666,3533,3926,3124,0,3833,1810,3702,3839,4127,5308,3042,2816,2540,3751,2290,3531,3993,3140,3814,4258,3431,3357,3278,2246,3437,3874,4818,4378,3143,2645,2493,2749,4176,4046,2334,2501,3802,3434,4774,5618,3221,3971,1795,2969,2471,4082,3313,4443,2864,3299,2695,3805,3178,4005,3934,5277,2247,4089,4361,1701,2963,2599,2390,0,3302,3214,4222,6546,3729,2358,3321,4393,1323,5034,2791,3739,2942,3491,3955,3110,3658,2322,2316,5921,3569,4957,3947,4781,4464,3249,3271,3515,0,3910,4710,2857,4248,3610,3759,2611,4023,3836,3797,3814,5210,3664,2735,4470,2967,2545,3917,4959,2696,3831,4078,3455,3654,4965,3853,3030,3367,3082,3909,2744,2684,3060,2993,3737,3714,3868,3585,2911,4478,3307,3541,4097,2922,3142,3392,5019,2723,2765,2430,2998,2607,3846,3189,3815,2967,3931,3379,4045,2100,1595,4341,3863,3156,5084,4457,3770,3616,3729,4053,2284,2952,5028,3468,5238,3018,3803,4640,2122,2920,3485,0,3110,4792,4013,2340,2290,3688,3490,3349,3151,3505,3800,5242,3474,3067,3246,3111,3983,3152,4131,3350,2254,3971,3125,3511,4930,3214,3018,3586,3590,3664,3930,3022,3035,3199,2317,3868,2252,1834,3524,2878,4174,4955,3770,1829,5609,2405,3089,3771,2029,2899,0,2237,2359,2675,2627,2444,4208,3858,2834,4209,4278,3452,4573,3490,3635,5151,2719,2886,2518,3572,2007,3738,2132,3476,2977,4409,2715,3444,2390,2793,3795,4288,3822,2712,2926,3761,3328,4682,2812,2314,4595,3437,3311,4334,3288,4419,3291,3102,3806,4415,3653,2910,4602,3867,2509,3208,2611,3897,2690,1897,3379,1841,3927,3086,3830,4215,3338,4790,5091,3462,3660,0,3657,2740,3942,4012,2003,3009,4732,3404,3053,2430,2854,2988,4746,2657,2530,1941,0,3739,2928,3077,3120,3720,3656,1841,3508,3081,2739,5031,3150,3493,4152,3885,1902,5033,0,4140,3392,4675,2416,4402,3930,3364,3782,3769,1950,3290,2320,3570,2300,2643,3147,3274,3376,4289,2495,0,0,2877,4425,3230,4287,3286,5057,4389,3475,2445,4894,2705,2357,2344,2776,3274,4158,3676,3457,2319,2530,3878,2377,3870,4496,2380,4238,3522,0,2249,3914,2926,3071,3395,3578,3998,3513,1949,3206,3381,3499,4078,4914,2525,4579,2961,1940,2333,2790,4191,2031,4845,3229,1957,4212,3836,4173,4838,3000,3564,3801,3191,2697,4223,2304,2681,2572,1802,3955,3805,2507,3582,2369,2998,3457,5739,4251,2306,3591,1237,4218,4374,3074,3214,3748,3071,2904,2122,3347,3557,3850,4202,2913,3807,4050,3333,3809,4763,6399,5417,2534,3561,3856,5859,3038,4281,3345,2472,2280,2322,5244,1843,2202,3851,4249,3298,3576,2458,1926,3574,2769,4362,2330,3293,2916,4837,3954,4569,2465,2773,2769,4642,4615,3605,1244,3343,4949,4105,3420,2135,1988,2346,2651,2921,3413,4197,3231,3701,3252,0,4306,3024,3679,3881,2917,0,2056,0,3381,3678,3090,2508,3731,3258,3827,3125,3055,2415,5147,1805,2500,1601,4142,2589,1542,2482,2456,3750,3074,6538,3349,4645,3812,3730,2282,4067,3160,1479,3265,3870,3106,2899,3414,3508,4896,3062,4108,4204,3761,4848,3890,4196,2814,3881,2897,2463,2704,3663,3507,3541,3207,2142,4115,5060,4028,1630,4114,4100,2184,2628,3837,3976,3098,4064,3604,2094,3555,2957,3021,2971,3640,2732,3969,2937,3675,2187,4241,3138,3647,3702,3796,3083,3758,2656,3631,3707,3061,3147,4256,3649,4690,3467,2949,2788,3273,4258,3835,3562,3355,3330,2565,3214,5199,3625,3901,4193,2477,5007,3470,5756,3724,3536,5066,4324,2629,5375,3182,2642,4303,3621,3505,3904,3937,3511,3570,3402,4361,3959,4215,2302,1927,3665,2819,0,4607,3204,3605,5887,5254,4974,3232,1463,2375,3904,3945,2745,2627,1214,2072,4362,3718,2388,3905,3976,3624,3711,3155,5329,4215,4324,2299,5256,2752,1568,4009,2656,3839,3117,0,3517,3167,4951,0,2601,2469,4126,2958,3530,3496,2317,3153,3904,3214,3637,2688,2402,2327,3890,3755,4261,2936,2794,4005,4119,3856,4085,3787,3831,3473,3784,3175,4260,2733,4290,2895,3696,3461,4235,5053,3801,3551,3763,1721,4558,3661,2969,4454,3185,2875,3719,3300,5450,3742,3799,5245,3509,3913,5371,5071,1883,2771,3361,3534,5072,4805,4457,4828,3741,3851,3810,4090,5425,1601,3771,5269,2764,3593,3930,3950,3817,3586,3359,2191,2981,5145,2920,3226,4158,2900,4002,3097,4055,4495,4310,2751,3126,5303,3652,5074,3283,3769,3738,2373,2753,2977,3844,4577,0,3488,4015,3687,3678,3322,2917,5313,2506,3160,3063,2542,4185,3358,4593,3352,3295,2604,4049,3706,2497,4696,3665,3593,3829,3482,2918,3630,2540,2616,3604,4907,1789,3085,2390,2313,3575,2761,3919,3029,3064,4708,4054,3064,3348,3294,3390,3234,2260,3198,4879,3476,3406,3534,2869,0,2395,4114,4226,3665,4048,2478,3996,2532,2954,4519,5371,3913,3284,2775,2570,3533,5798,2709,4286,4057,3779,3832,3296,3940,3741,3970,3400,2612,2300,3317,3689,0,2179,5326,3475,1866,3324,5837,2188,3513,3324,3547,3369,3450,3128,3416,5429,3361,3623,4449,3819,3160,3969,6486,4045,4368,3395,3171,3720,5038,4156,1814,2965,3031,3307,3487,1610,0,5350,4367,3198,2833,4036,2737,2679,4228,4500,3506,2772,0,3390,4175,2175,3127,1950,4112,0,4093,1975,2554,4401,3715,5212,2605,4409,0,3740,4151,1544,3230,3628,3768,3472,4571,4938,2775,3775,4304,3363,3263,3805,4388,2755,2636,0,3134,2323,3791,3766,4458,4254,3589,5329,3676,2026,2279,4320,5005,6023,2001,4755,4414,4178,2642,2397,1866,3145,4281,3807,3664,2720,4524,3355,4757,2701,3112,3444,3678,2328,3689,3668,3802,4451,4338,2673,5133,3617,2858,2939,3740,3136,4286,2781,2947,3326,3918,2014,4366,2996,3746,5189,4710,7768,2797,3176,3063,3706,3810,3721,3149,1916,3969,5091,2540,3339,3558,3146,3503,2760,2712,3836,2769,3844,0,3112,3610,2762,6113,2963,3808,1936,3192,3227,2220,3734,2362,2042,1941,2265,1942,1837,3346,3429,3374,3514,4502,3632,2335,3857,2248,3503,4395,1945,3523,3384,2286,1866,4215,3904,1999,3187,3138,3722,3104,3252,3472,2053,0,4419,3081,3865,3900,3674,3417,2416,3619,3766,3508,3484,1690,4043,2303,3819,4098,3568,2656,5573,3931,3717,3985,3295,3706,1794,3171,1873,3035,3623,3587,2761,2665,4284,4743,3860,3698,2078,4186,3542,3544,2647,3250,2346,3276,2974,2407,3260,4803,3315,4914,3123,3596,5032,3261,3366,4527,3214,3246,4076,3697,4503,2829,4397,3393,2569,3805,3794,3975,4271,3007,3922,3724,3129,1676,4774,2559,3174,3251,3692,3779,4533,2510,4286,3398,5214,3104,2844,3115,3460,2286,3072,4279,1865,2112,3735,3662,3512,3266,3133,4850,3444,3713,3856,3906,3067,2721,3176,2376,3696,2811,2248,2557,2981,3156,3473,4241,2325,5480,4009,4043,3130,3618,3445,3412,3676,4859,4836,3772,2311,0,3187,4447,2684,3736,3039,2967,2375,2980,2812,2789,3919,6151,4409,3485,3820,2800,4034,3430,5195,2742,3405,3024,4309,3306,2426,4057,3166,3695,2752,2214,3368,1151,3113,3790,3079,3373,3458,3186,3103,3596,3474,2341,3773,2691,2255,3857,2186,2175,2912,4720,3187,4190,3921,1910,3866,5382,3016,3035,3356,3227,3699,3434,4005,4261,1697,2695,2524,3779,2204,3347,4549,4248,3970,3033,3836,3239,4205,3392,3659,0,3993,4249,4972,2198,2959,3117,4143,2390,2608,3474,3264,2240,3847,2771,2712,5082,2696,2319,4102,4439,4345,2646,4284,2489,0,4410,2723,3305,2594,3524,2338,2151,3036,5345,2881,3552,3255,4240,3215,1718,3176,3993,3176,4028,4197,2950,2910,4915,3239,3100,3780,3957,2649,2957,2663,4190,3178,3961,3775,2170,2063,1985,3319,5027,3306,3616,3317,3651,3890,2111,2504
2626,3964,4738,4057,2555,4296,3357,4127,5433,3373,3337,2768,4433,4276,0,2734,3172,5399,6457,3745,3608,3029,3612,0,4748,3239,3187,2642,3795,3369,2197,2608,2895,2854,3291,4167,4598,3907,5219,4451,4475,2923,4149,3901,3783,4391,2509,2538,3901,3445,4552,2144,3951,3253,4116,3273,4150,0,2795,3631,2841,2511,4003,3908,3725,2837,2310,4611,2205,3081,2630,3761,2352,4194,3357,3250,4089,4260,3657,0,3612,2986,2556,4099,4064,3302,3371,2705,2493,6397,5527,3277,4522,2646,2995,3217,2827,3535,1960,1558,3787,4867,3536,3386,4895,4507,4310,3613,2877,3780,4217,3323,0,4049,1937,4005,4102,4416,5686,3206,3041,2720,3936,2455,3773,4292,3372,4115,4552,3674,3594,3499,2461,3705,4171,5175,4706,3448,2781,2668,2933,4411,4343,2510,2674,4097,3684,5154,6024,3442,4279,1972,3159,2599,4319,3567,4744,3025,3492,2892,4104,3405,4293,4218,5678,2417,4379,4694,2010,3181,2783,2565,0,3536,3346,4527,7029,3982,2505,3549,4720,1418,0,3011,4144,3133,3687,4272,3359,3979,2481,2487,6360,3826,5720,4239,5111,4842,3506,3615,3796,0,4182,5049,2937,4614,3969,4131,2803,4314,4111,4073,4089,5582,3936,2931,4810,3144,2735,4057,5107,2831,4119,4447,3705,3932,5380,4122,3229,3560,3194,4200,2897,3071,3327,3293,3905,3982,4139,3842,3074,4803,3557,3739,4395,3127,3292,3664,5389,2923,3018,2533,3173,2863,4167,3417,4074,3199,4214,3645,4197,2246,1704,4655,4138,3381,5261,4816,4055,3895,4001,4341,2446,3296,5392,3698,5612,3170,3931,4980,2278,3230,3736,0,3340,4937,4359,2502,2466,3999,3748,3603,3380,3750,4072,5617,3745,3296,3492,3379,4285,3389,4296,3540,2424,4216,3323,3739,5284,3356,3232,3847,3864,3915,4199,3158,3134,3387,2489,4159,2413,1951,3781,3026,4447,5325,4052,1965,6051,2579,3353,3992,2159,3107,0,2411,2522,2875,2812,2626,4499,4136,3037,4363,4589,3739,4708,3753,3895,5555,2916,3172,0,3824,2148,4009,2329,3797,3189,4722,2949,3695,2556,3033,4071,4605,4184,2935,3074,4038,3611,5020,3016,2501,4939,3738,3594,4649,3525,4811,3526,3341,4119,4742,3927,3145,4911,4169,2644,3436,2806,4198,2877,2046,3633,1975,4455,3217,4178,4509,3436,5179,5427,3729,4067,0,3921,2944,4239,4277,2147,3228,5101,3641,3288,2679,3054,3214,4920,2842,2697,2054,0,4262,3159,3298,3342,3990,3896,1971,3772,3360,2934,5323,3372,3752,4464,4148,2031,5411,0,4380,3637,5051,2582,4680,4242,3642,4018,4047,2096,3418,2451,4214,2487,2906,3372,3366,3602,4613,2769,0,0,3100,4742,3460,4609,3547,5419,4723,3729,2624,5253,2898,2531,2482,2875,3590,4458,4056,3713,2489,2621,4084,2552,4209,4811,2561,4560,3895,0,2408,4137,3237,3310,0,3857,4301,3770,2074,3468,3632,3667,4378,5281,2725,4930,3184,2086,2495,3000,4440,2178,5224,3531,2094,4508,4108,4482,5198,3245,3729,4077,3350,2810,4528,2479,2870,2690,1927,4266,3939,2696,3835,2539,3221,3715,6073,4555,2460,3860,1326,4520,4742,3314,3520,3947,3303,3157,2313,3526,3874,4121,4501,3091,4079,4393,3540,4094,5119,6899,5881,2707,3844,4170,6268,3249,4574,3577,2670,2442,2499,5601,1980,2365,4147,4562,3548,3894,2653,2109,3837,2879,4679,2494,3454,3138,5086,4231,4727,2594,2964,2890,4882,4948,3807,1335,3617,5435,4415,3783,2297,2130,2515,2838,3154,3671,4523,3482,3894,3488,0,4607,3204,3980,4203,3189,0,2209,0,3618,3944,3228,2698,4006,3489,4112,3412,3280,2541,5521,1951,2678,1717,4440,2771,1651,2686,2629,4449,3245,7000,3578,4990,4078,3966,2448,4340,3408,1585,3523,4143,3312,3099,0,3767,5292,3353,4265,4463,4046,5107,4158,4498,2967,4129,3122,2686,3011,3939,3764,3790,3438,2291,4310,5406,4318,1745,4361,4749,2349,2840,4124,4244,3331,4367,3814,2242,3831,3179,3231,3195,3869,2948,4280,3116,3963,2343,4513,3378,3892,3957,4084,3412,4075,2853,3893,3984,3270,3385,4556,3996,4835,3728,3093,2973,3502,4566,4111,3841,3694,3566,2699,3468,5579,3883,4233,4499,2677,5373,3735,6187,3988,3861,5433,4588,3055,5809,3419,2804,4820,3883,3764,4214,4223,3871,3733,3639,4689,4251,4521,2494,2075,3941,3022,0,4970,3460,3837,6320,5626,5337,3479,1568,2546,4188,4059,3019,2810,1300,2225,4680,3987,2558,4197,4243,3880,3966,3377,5713,4553,4635,2467,5651,2938,1683,4310,2856,4136,3316,0,3753,3375,5321,0,2799,2658,4452,3221,3783,3759,2479,3395,4251,3422,3906,2879,2545,2491,4185,4026,4581,3052,2889,4367,4479,4145,4279,4085,4120,3712,4089,3586,4506,2942,4651,3101,3987,3716,4639,5441,4067,3747,4001,1843,4896,3914,3208,4779,3380,3105,3982,3367,5983,4032,4120,5640,3771,4310,5742,5443,2020,2971,3583,3751,5465,4978,4770,5199,4030,4125,4089,4389,5846,1714,4045,5677,2931,3842,4185,4251,4107,3887,3620,2352,3209,5515,3121,3493,4467,3148,4305,3317,4380,4817,4437,2947,3327,5697,3994,5459,3553,4039,4004,2660,2822,3191,4127,4912,0,3742,4329,3959,3933,3569,3148,5625,2682,3408,3285,2724,4492,3617,4918,3643,3535,2993,4337,3971,2675,5035,3924,3885,4076,3779,3093,3817,2716,2815,3869,5277,2040,3432,2638,2485,3829,2960,4194,3264,3294,5045,4352,3319,3600,3539,3658,3453,2485,3345,5205,3721,3546,3789,3085,0,2459,4409,4590,3842,4290,2662,4301,2671,3159,4855,5716,4202,3538,2981,2827,3834,6244,2903,4604,4316,4064,4126,3526,4234,4013,4225,3621,2695,2482,3567,3900,0,2294,5686,3715,2029,3472,6258,2341,3654,3576,3784,3612,3705,3350,3672,5814,3659,3887,4658,4049,3495,4259,6964,4505,4765,3626,3405,4016,5413,4448,1940,3172,3213,3567,3752,1738,0,5508,4679,3532,3045,4491,2919,2751,4543,4820,3770,2977,0,3642,4482,2343,3325,2151,4388,0,4439,2114,2734,4736,3867,5561,2754,4980,0,4002,4457,1649,3369,3742,4088,3778,4919,5294,2988,4033,4624,3592,3504,4084,4678,2964,2916,0,3302,2498,3951,4035,4806,4621,3853,5404,3986,2171,2442,4665,5371,6449,2115,5086,4780,4486,2722,2567,2001,3407,4599,4099,3976,2921,4964,3598,4983,2897,3389,3689,3965,2500,3955,4059,4159,4800,4657,2872,5555,3883,3178,3100,4012,3360,4499,2964,3156,3546,4221,2164,4697,3199,4018,5585,5068,8025,2992,3382,3282,4005,4084,4011,3345,2047,4129,5446,2903,3607,3850,3381,3774,3019,2903,4121,2950,4126,0,3343,3892,3041,6589,3110,4132,2070,3492,3534,2375,4017,2538,2190,2094,2423,2082,1966,3607,3682,3663,3811,4837,3880,2502,4116,2416,3749,4712,2049,0,3573,2450,1994,4530,4158,2141,3419,3370,4017,3323,3479,3687,2208,0,4743,3389,4210,4246,3921,3684,2586,3875,4031,4021,3744,1783,4301,2468,4057,4397,3836,2868,5995,4248,3968,4300,3514,4276,1916,3381,2008,3306,3863,3849,2891,2853,4589,5108,4182,3972,2235,4464,3814,3678,2856,3488,2516,3514,3232,2580,3489,5152,3486,5283,3358,3869,5393,3390,3615,4850,3442,3483,4368,3970,4942,3054,4717,3633,2745,4098,4040,4261,4534,3228,4109,4001,3354,1792,5167,2744,3413,3395,4000,4043,4872,2710,4588,3655,5595,3341,3066,3336,3734,2443,3144,4597,1995,2266,4015,3914,3787,3507,3346,5210,0,3967,4088,4201,3297,2855,3465,2543,3956,3042,2405,2749,3151,3345,3692,4461,2519,5881,4308,4257,3427,3893,3698,3672,3940,5343,5159,4066,2479,0,3428,4756,3086,3826,3200,3198,2546,3201,3018,2940,4219,6611,4751,3743,4083,3047,4342,3688,5582,2978,3667,3235,4622,3566,2615,4357,3382,3960,3007,2377,3607,1236,3331,4105,3373,3678,3686,3426,3323,3886,3611,2535,4050,2911,2421,4223,2347,2365,3396,4936,3426,4335,4228,2068,4156,5793,3240,3274,3598,3473,3989,3691,4311,4717,1846,2946,2706,4007,2361,3594,4863,4561,4263,3258,4124,3412,4509,3532,3889,0,4271,4531,5331,2355,3108,3358,4429,2560,2807,3796,3534,2462,4097,2963,2913,5444,2869,2487,4376,4637,4656,2854,4591,2670,0,4736,2909,3470,2783,3798,2447,2302,3245,5775,3097,3805,3505,4552,3476,1836,3393,4278,3420,4311,4502,3137,3127,5246,3482,3325,4080,4227,2846,3147,2872,4497,3369,4256,4016,2511,2215,2128,3519,5388,3539,3870,3552,3965,4177,2240,2678
2841,4279,5059,4334,2733,4624,3585,4402,5803,3546,3552,2952,4722,4562,0,2925,3421,5763,6890,4035,3850,3261,3862,0,5048,3459,3421,2813,4063,3696,2323,2782,3094,3049,3528,4456,4874,4171,5468,4761,4759,3107,4423,4185,3957,4624,2682,2708,4148,3686,4864,2287,4120,3420,4475,3501,4419,0,3112,3883,3028,2677,4280,4209,4050,3048,2461,4925,2362,3298,2802,4010,2586,4487,3588,3486,4348,4542,3976,0,3897,3175,2738,4420,4373,3432,3594,2872,2675,6695,5745,3513,4686,2827,3208,3410,3011,3800,2086,1658,4042,5194,3778,3638,5212,4851,4612,3920,3089,4032,4505,3530,0,4336,2065,4319,4366,4707,6077,3510,3291,2895,4056,2623,3916,4589,3607,4415,4844,3917,3830,3637,2658,3972,4462,5528,5040,3710,3007,2846,3117,4601,4636,2687,2846,4362,3911,5356,6424,3666,4576,2073,3355,2730,4575,3819,5032,3187,3612,3086,4401,3633,4544,4503,6072,2634,4673,5016,2287,3396,2964,2740,0,3777,3622,4851,7507,4243,2726,3783,5028,1512,0,3232,4546,3385,3753,4546,3615,4269,2641,2657,6793,4081,6127,4553,5445,5179,3766,3855,4069,0,4453,5394,3117,4966,4284,4456,2991,4603,4385,4355,4361,5940,4213,3127,5126,3365,2925,4413,5465,3074,4404,4664,3962,4086,5618,4391,3445,3796,3495,4487,3133,3258,3597,3544,4200,4251,4429,4096,3236,5131,3960,4067,4688,3333,3592,3805,5754,3123,3264,2648,3419,3023,4494,3646,4357,3419,4491,3908,4529,2392,1820,4978,4222,3612,5719,5158,4336,4163,4275,4624,2608,3520,5749,3924,5981,3467,4167,5154,2435,3484,3987,0,3571,5086,4703,2660,0,0,4000,3858,3615,3995,4340,5986,4008,3526,3736,3642,4588,3625,4652,3778,2593,4577,3521,4095,5639,3634,3428,4110,4138,4165,4410,3413,3291,3577,2661,4462,2573,2068,4042,3278,4745,5692,4333,2101,0,2754,3587,4068,2309,3315,0,2574,2686,3079,3002,2816,4788,4424,3243,4691,4901,3978,4929,4014,4154,5963,3114,3300,0,4081,2289,4280,2435,4103,3401,5033,3150,3949,2724,3255,4347,4920,4535,3134,3225,4314,3856,5358,3219,2694,5280,3989,3877,4954,3761,5195,3752,3577,4418,5061,4168,3384,5230,4596,2874,3668,3006,4500,3064,2193,3895,2110,4726,3540,4532,4809,3816,5566,5786,3933,4331,0,4186,3149,4542,4546,2293,3451,5355,3879,3506,2896,3252,3441,5172,3029,2864,2171,0,4514,3387,3521,3563,4263,4408,2100,3994,3585,3131,5878,3597,4014,4780,4485,2112,5787,0,4619,3885,5408,2749,4951,4574,3880,4251,4326,2242,3749,2618,4533,2682,3115,3614,3518,3832,4940,2975,0,0,3453,5067,3691,4945,3805,5784,5050,3983,2803,5610,3091,2708,2753,3109,3855,4756,4327,3969,2660,2710,4191,2726,4551,5390,2743,4803,4162,0,2568,4346,3444,3545,0,4145,4610,3886,2197,3682,3888,3749,4679,5660,2916,5090,3406,2231,2658,3208,4683,2281,5590,3776,2230,4806,4375,4785,5571,3436,4012,4354,3608,3053,4829,2660,3057,2903,2050,4570,4300,2879,4092,2710,3402,3970,6404,4828,2614,4119,1415,4823,5080,3444,3774,4270,3536,3539,2508,3736,4192,4389,4758,3185,4346,4711,3993,4377,5461,7408,6321,2877,4118,4488,6689,3466,4865,3813,2865,2603,2673,5920,2119,2526,4445,4880,3802,4204,2722,2239,4103,3121,4991,2658,3798,3354,5595,4509,5108,2794,3153,3162,5122,5282,4088,1426,3891,5666,4719,3951,2459,2272,2683,3026,3389,3929,4855,3610,4234,3725,0,4912,3477,4276,4503,3602,0,2361,0,3853,4212,3531,2888,4287,3717,4409,3698,3507,2787,5892,2021,2857,1833,4736,2968,1758,2793,2802,4811,3448,7462,3859,5331,4340,4246,2613,4657,3655,1690,3589,4415,3502,3290,0,4026,5686,3502,4691,4729,4324,5365,4433,4793,3224,4388,3348,2903,3254,4209,4020,4040,3668,2443,4715,5733,4609,1859,4503,5008,2513,3026,4426,4697,3564,4577,4145,2391,4099,3404,3444,3417,4083,3162,4593,3381,4249,2499,4822,3615,4153,4215,4418,3644,4391,3049,4146,4257,3564,3531,4853,4272,5239,3990,3399,3166,3740,4772,4393,4104,3840,3810,2962,3720,5963,4141,4567,4822,2873,5743,3865,6618,4252,4151,5781,4940,3271,6246,3657,2968,5132,4142,4019,4468,4530,4133,4005,3878,5022,4545,4830,2695,2223,4211,3215,0,5323,3724,4049,6766,6015,5707,3698,1673,2707,4482,4358,3167,2995,1385,2377,5004,4254,2724,4492,4518,4136,4220,3599,6077,4894,4957,2636,6043,3054,1798,4614,3057,4429,3512,0,3987,3592,5684,0,2990,2846,4769,3485,4012,4027,2641,3635,4551,3595,4179,3071,2691,2652,4314,4295,4827,3271,3123,4672,4701,4307,4660,4384,4409,3955,4384,3929,4752,3148,5009,3307,4274,3975,4854,5822,4335,4007,4290,1965,5229,4177,3452,5101,3743,3335,4260,3624,6234,4319,4425,6019,4032,4477,6136,5809,2159,3172,3810,4038,5864,5364,5097,5585,4316,4398,4295,4687,6245,1824,4326,5855,3187,4097,4481,4546,4400,4188,3874,2513,3437,5886,3322,3761,4785,3406,4613,3536,4699,4941,4780,3145,3523,6066,4158,5858,3816,4297,4270,2819,3034,3406,4426,5248,0,3999,4645,4230,4189,3792,3304,5930,2859,3661,3507,2903,4718,3872,5239,3926,3782,3385,4619,4189,2858,5370,4178,4170,4324,4060,3416,4105,2891,3024,4133,5653,2234,3693,2819,2663,4086,3159,4433,3502,3526,5211,4658,3578,3853,3783,3925,3680,2669,3654,5644,3969,3776,4040,3300,0,2583,4706,4816,4219,4550,2846,4612,2774,3363,5177,6063,4490,3791,3189,3077,3991,6690,3040,4919,4574,4316,4421,3760,4517,4285,4547,3764,2790,2662,3815,4168,0,2410,6054,3950,2193,3762,6680,2408,3798,3825,4016,3856,3939,3570,3923,6202,3861,4156,4870,4274,3613,4545,7447,4695,5129,3860,3673,4296,5789,4742,2064,3375,3405,3825,4016,1854,0,5995,4965,3689,3255,4719,3101,2890,4859,5130,4035,3182,0,3892,4795,2511,3533,2221,4657,0,4660,2253,2914,5066,0,5900,2958,5229,0,4267,4703,1756,3651,3897,4411,4043,5081,5604,3199,4293,4908,3763,3638,4364,4997,3169,3175,0,3609,2672,4315,4280,5154,4981,4113,5802,4148,2316,2604,5021,5732,6872,2228,5430,5140,4710,2904,2737,2137,3680,4917,4391,4203,3122,5331,3846,5381,3090,3667,3932,4233,2671,4219,4326,4521,5152,4977,3071,5804,4152,3315,3402,4293,3581,4810,3147,3364,3769,4483,2319,5026,3441,4293,5985,5423,0,3184,3694,3504,4236,4361,4285,3537,2177,4515,5813,2997,3858,4133,3617,4037,3217,3127,4417,3101,4412,0,3587,4151,3228,7054,3237,4422,2209,0,3828,2526,4303,2714,2316,2245,2583,2224,2098,3830,3938,3950,4099,5154,4136,2670,4401,2582,4244,5018,2182,0,3881,2617,2122,4870,4412,2282,3652,3603,4288,3556,3745,4018,2363,0,5069,3692,4493,4399,4178,3947,2755,4134,4253,4193,3919,1818,4623,2634,4166,4696,4102,3052,6412,4565,4230,4541,3732,4554,2038,3603,2144,3576,4103,4110,3163,3041,4887,5473,4475,4241,2393,4763,4089,4081,3060,3732,2686,3748,3653,2695,3719,5504,3770,5632,3594,4142,5740,3664,3864,5173,3671,3724,4660,4229,5342,3280,5060,3878,2923,4384,4289,4593,4793,3444,4457,4267,3497,1915,5530,2929,3651,3681,4298,4305,5208,2909,4891,3907,5960,3575,3288,3556,3995,2601,3231,4915,2127,2422,4301,4116,4053,3746,3560,5573,0,4220,4335,4496,3532,3035,3655,2711,4219,3254,2544,2942,3414,3616,3903,4708,2715,6283,4622,4472,3622,4172,4185,3878,4234,5811,5488,4367,2650,0,3669,5063,3281,4285,3431,3349,2718,3426,3223,3179,4495,7075,5080,4001,4381,3301,4697,3942,5979,3217,3930,3458,4924,3827,2847,4657,3596,4222,3140,2540,3851,1321,3544,4272,3680,3836,3913,3657,3539,4144,3976,2729,4324,3134,2589,0,2506,2436,3978,5364,3665,4699,4537,2225,4447,6232,3465,3590,3840,3720,4142,3933,4502,5250,1986,3205,2887,4328,2515,3841,5212,4878,4556,3474,4414,3702,4806,3826,4215,0,4551,4827,5694,2513,3366,3504,4603,2728,2939,4070,3797,2584,4348,3153,3115,5821,3002,2658,4646,5011,4970,3084,4896,2851,0,5063,3103,3786,2972,4082,2600,2453,3373,6216,3313,4060,3755,4860,3743,1949,3610,4563,3663,4587,4812,3546,3345,5582,3721,3551,4380,4494,3043,3345,3053,4806,3557,4551,4272,2692,2367,2271,3748,5742,3671,4110,3791,4268,4464,2331,2845
3060,4540,5296,4611,2910,4925,3811,4676,6163,3732,3769,3143,4906,4854,0,3116,3561,6121,7330,4214,4187,3323,4108,0,5396,3682,3652,2983,4326,3940,2503,2953,3294,3238,3765,4678,5131,4433,5802,5062,5060,3282,4698,4450,4190,4954,2857,2879,4404,3927,5176,2430,4460,3591,4769,3731,4704,0,3426,4138,3217,2847,4552,4550,4346,3263,2613,5242,2519,3518,2974,4258,2818,4742,3816,3709,4601,4836,4231,0,4175,3360,2920,4756,4687,3665,3820,3038,2857,7028,6035,3740,5013,3010,3419,3651,3195,4058,2214,1757,4301,5519,4021,3886,5527,4933,4908,4109,3299,4290,4794,3740,0,4573,2191,4629,4660,4990,6424,3734,3643,3066,4236,2789,4034,4759,3838,4714,5128,4175,4067,3928,2741,4239,4749,5887,5370,3866,3205,3023,3306,4987,4858,2862,3016,4619,4190,5679,6829,3887,4864,2212,3622,2861,5076,4076,5391,3360,3802,3286,4697,3859,4857,4777,6470,2723,4964,5343,2643,3606,3143,2906,0,4023,3855,5094,7995,4498,2901,4018,5352,1606,0,3448,4942,3565,4015,4835,3867,4547,2802,2827,7218,4337,6362,4874,5789,5464,3995,4093,4343,0,4723,5725,3274,5133,4464,4774,3180,4887,4600,4634,4638,6283,4492,3323,5438,3532,3114,4781,5588,3271,4686,5040,4213,4390,6022,4624,3659,4071,3606,4776,3330,3447,3729,3785,4490,4523,4972,4360,3398,5459,4191,4257,4979,3543,3742,4103,6111,3323,3500,2939,3665,3179,4824,3877,4644,3642,4770,4169,4988,2536,1934,5307,4377,3837,6081,5510,4636,4442,4546,4919,2770,3741,6108,4148,6341,3604,4421,5530,2592,3737,4237,0,3800,5516,5047,2819,0,0,4254,4114,3798,4243,4603,6379,4272,3755,3979,3880,4880,3858,4948,4006,2760,4874,3647,4283,5991,3865,3625,4372,4411,4584,4668,3672,3556,3902,2833,4745,2731,2185,4303,3431,5045,6057,4616,2237,0,2926,3841,4197,2459,3522,0,2736,2854,3282,3189,3000,5096,4715,3447,4994,5206,4226,5062,4144,4407,6371,3313,3583,0,4341,2429,4554,2548,4400,3612,5346,3322,4201,2889,3458,4624,5187,4855,3326,3375,4589,4101,5703,3422,2882,5498,4165,4161,5266,4000,5569,3974,3813,4720,5386,4457,3626,5573,4728,3009,3897,3185,4800,3253,2340,4142,2246,5257,3766,4862,5111,4030,5945,6131,4213,4591,0,4451,3353,4847,4867,2439,3676,5779,4113,3732,3088,3394,3669,5554,3216,3031,2355,0,4674,3612,3741,3790,4531,4644,2230,4280,3811,3327,6423,3824,4277,5070,4751,2290,6168,0,4861,4139,5786,2915,5234,4875,4121,4489,4609,2389,3976,2851,4854,2881,3316,3865,3842,4072,5260,3043,0,0,3718,5396,3924,5182,4063,6152,5371,4233,2983,5964,3209,2886,3009,3314,4122,5047,4599,4226,2831,2860,4360,2900,4894,5582,2945,5208,4414,0,2732,4825,3644,3780,0,4230,4865,4031,2325,3920,4043,4001,4980,6048,3107,5400,3626,2378,2824,3418,4928,2471,5964,4027,2366,5110,4643,5093,5938,3690,4296,4630,3767,3238,5130,2836,3456,3024,2177,4870,4567,3065,4347,2883,3620,4212,6733,5133,2769,4364,1505,5113,5398,3733,3902,4565,3772,3663,2703,3950,4504,4659,5034,3411,4617,5059,4253,4668,5811,7916,6751,3045,4396,4804,7140,3681,5177,4052,3061,2761,2851,6270,2259,2686,4735,5199,4040,4497,2846,2390,4367,3265,5314,2822,3959,3571,5818,4788,5497,2958,3343,3283,6090,5620,4351,1517,4061,6151,4941,4311,2621,2415,2849,3212,3627,4178,5179,3977,4520,3959,0,5210,3692,4579,4803,3799,0,2512,0,4086,4476,3669,3080,4564,3940,4693,3995,3737,2965,6259,2118,3035,1950,5033,3157,1867,2873,2974,5175,3638,7929,3977,5661,4606,4502,2779,4917,3907,1796,3739,4685,3715,3490,0,4283,6083,3780,4976,5009,4572,5647,4756,5099,3378,4658,3505,3121,3497,4480,4276,4288,3895,2596,4913,5891,4899,1972,4849,5253,2677,3239,4724,5119,3796,4921,4414,2540,4230,3628,3657,3641,4301,3265,4895,3467,4538,2655,5169,3849,4418,4473,4733,3776,4709,3243,4399,4449,3810,3870,5152,4562,5791,4123,3623,3400,3993,5156,4676,4378,4176,4065,3092,3974,6351,4408,4900,5123,3076,6115,4216,7056,4517,4470,6104,5250,3474,6663,3896,3131,5436,4401,4270,4785,4887,4426,4252,4117,5343,4844,5139,2897,2371,4473,3410,0,5676,3990,4372,0,6400,6074,3921,1778,2879,4791,4657,3440,3181,1470,2528,5325,4523,2897,4790,4796,4390,4475,3821,6464,5233,5105,2804,6428,3316,1912,4913,3256,4703,3671,0,4217,3779,6045,0,3181,3031,5091,3755,4311,4215,2802,3872,4847,3838,4453,3263,2883,2814,4481,4563,5196,3483,3366,5056,5073,4690,4784,4652,4696,4201,4676,4230,5001,3352,5292,3515,4562,4238,5253,6207,4611,4147,4565,2087,5555,4461,3701,5423,3937,3569,4536,3793,6778,4600,4745,6419,4290,4654,6512,6183,2297,3372,4046,4287,6252,5705,5396,5984,4601,4669,4643,4987,6602,1936,4598,6033,3384,4359,4760,4846,4697,4491,4136,2672,3663,6260,3528,4018,5105,3565,4926,3602,5015,5161,5109,3341,3721,6458,4498,6252,4085,4563,4539,2881,3247,3622,4700,5583,0,4256,4959,4499,4447,4065,3563,6329,3035,3910,3728,3084,5098,4130,5561,4209,4026,3779,4901,4498,3045,5708,4434,4448,4579,4341,3593,4367,3068,3235,4396,6019,2366,3893,2999,2847,4348,3356,4734,3740,3750,5596,4965,3828,4104,4031,4177,3912,2859,3801,5899,4215,4043,4279,3512,0,2778,5003,5167,4489,4789,3029,4755,2868,3527,5509,6455,4781,4049,3307,3334,4235,7130,3302,5234,4724,4578,4707,3993,4817,4556,4846,4021,2938,2838,4065,4435,0,2516,6430,4424,2358,4032,7021,2496,3895,4079,4164,4099,4184,3794,4176,6588,4159,4417,5080,4504,0,4832,7920,5083,5478,4093,3880,4576,6162,5035,2189,3577,3685,4081,4295,1936,0,6395,5278,4003,3464,4949,3384,3101,5051,5407,4299,3393,0,4146,5105,2679,3654,2298,4900,0,5036,2389,3114,5205,0,6206,3144,5491,0,4527,5053,1861,3911,3984,4729,4305,5445,5869,3414,4561,5239,3888,3928,4647,5317,3361,3411,0,3857,2847,4630,4564,5507,5340,4381,6200,4501,0,2768,5381,6100,7293,2342,5777,5467,5081,3089,2907,2274,3866,5234,4543,4504,3301,5697,4103,5693,3284,3940,4171,4504,2808,4485,4600,4754,5484,5301,3270,6296,4416,3441,3708,4556,3803,5016,3331,3571,3997,4666,2474,5376,3690,4567,6376,5779,0,3380,3920,3719,4533,4640,4560,3905,2311,4675,6178,3084,4116,4273,3854,4295,3415,3290,4712,3446,4699,0,3835,4404,3400,7121,3495,4752,2347,0,4134,2619,4588,2890,2512,2398,2740,2363,2229,4113,4197,4238,4383,5474,4388,2837,4665,2752,4491,5329,2309,0,4133,2789,2250,5200,4923,2423,3888,3834,4560,3784,3966,4284,2518,0,5397,3993,4791,4532,4459,4210,2923,4393,4462,4540,4251,1968,4953,2796,4789,4992,4368,3268,6810,4878,4492,4904,3950,4822,2161,3725,2279,3844,4340,4367,3372,3230,5192,5830,4766,4514,2551,5076,4360,4437,3259,3980,2858,3978,3873,2752,3949,5858,4042,5997,3826,4413,6090,0,4104,5494,3901,3962,4952,4486,5663,3507,5380,4118,3099,4673,4442,4899,5056,3654,4747,4557,3668,2027,5641,3115,3889,3893,4603,4570,5355,3098,5193,4156,6345,3812,3511,3779,4255,2753,3429,5234,2257,2575,4461,4416,4298,3903,3772,5934,0,4476,4612,4791,3772,3169,3930,2878,4485,3434,2729,3136,3641,3804,4129,4977,2910,6677,4935,4695,3737,4309,4511,4131,4537,6073,5658,4667,2820,0,3910,5368,3478,4615,3650,3632,2890,3650,3428,3381,4797,7543,5397,4259,4683,3450,4946,4181,6368,3455,4192,3691,5224,4087,2995,4959,3811,4484,3393,2707,3974,1405,3762,4602,3983,4149,4136,3892,3754,4416,4264,2922,4602,3358,2758,0,2666,2692,4363,5680,3904,5022,4851,2383,4735,6647,3696,3864,4081,3966,4519,4179,4867,5417,2240,3457,3070,4604,2668,4089,5559,5196,4844,3702,4701,3990,5076,4076,4634,0,4839,5108,6034,2672,3583,3790,5015,2895,3113,4342,4068,2809,4617,3342,3316,6226,3130,2830,0,5345,5286,3289,5203,3031,0,5399,3292,4014,3162,4358,2773,2605,3659,6650,3582,4316,3997,5169,4016,2069,3821,4848,3905,4858,5123,3923,3566,5920,3963,3777,4679,4753,3243,3563,3231,5110,3937,4844,4513,2806,2520,2414,3985,6102,3933,4359,4152,4564,4758,2565,3019
