74,196,131,99,207,312,118,122,106,349,176,180,253,312,566,155,163,274,216,386,86,209,204,139,126,193,137,73,85,264,115,149,683,290,86,143,191,121,141,156,216,264,95,307,70,152,96,385,102,155,586,241,213,251,171,81,63,67,137,84,309,140,219,203,141,103,88,495,165,298,108,87,231,69,285,297,209,177,215,270,299,102,140,193,77,120,101,138,126,143,222,261,245,307,327,137,179,127,208,84,180,293,109,164,248,230,227,70,74,110,90,199,241,239,213,88,194,153,196,199,85,159,188,158,246,69,197,95,166,268,257,267,151,262,172,95,64,230,172,151,288,395,314,275,147,63,804,274,189,139,273,174,195,116,231,157,84,100,152,102,167,70,144,297,188,120,75,301,137,84
312,354,381,374,513,626,250,381,403,633,356,490,358,604,719,336,519,403,430,499,211,436,301,294,175,326,391,213,381,529,246,247,956,505,157,247,537,224,365,320,466,375,376,514,329,385,369,744,262,379,787,516,544,440,402,213,140,171,347,389,466,361,494,519,278,488,301,564,260,601,202,172,408,202,555,425,476,412,513,556,554,260,326,449,278,218,267,390,231,315,433,536,420,568,613,217,247,443,402,334,477,627,463,445,540,449,416,177,922,375,141,332,405,398,289,254,494,365,438,502,297,420,552,418,457,252,460,356,473,544,422,429,346,558,397,163,161,446,382,511,645,669,604,432,400,392,995,511,391,205,351,323,441,313,576,346,363,266,337,276,348,292,430,456,393,362,288,633,251,301
557,408,630,456,748,963,319,638,740,908,535,803,553,900,1167,514,876,489,644,581,532,653,531,370,333,555,643,269,670,703,347,516,1227,628,280,310,695,493,437,442,724,453,653,667,567,454,642,1201,430,602,1003,782,870,663,633,453,420,351,775,649,621,540,612,783,356,726,507,735,447,918,384,268,612,396,630,555,743,690,817,677,810,385,509,711,421,344,363,560,324,409,801,712,617,628,893,445,480,698,596,562,775,966,792,692,830,608,595,246,1394,648,258,583,643,492,397,291,728,573,557,802,506,666,926,928,664,343,722,618,617,765,524,594,546,854,674,289,430,658,589,622,854,943,898,706,479,745,1187,661,571,305,549,458,646,737,887,468,645,431,542,515,428,438,730,846,483,602,397,965,424,551
647,608,879,749,823,1300,489,906,860,1178,715,1117,655,1199,1363,693,1230,749,855,873,738,887,770,468,505,703,803,463,954,865,450,798,1407,717,475,512,955,650,523,581,973,530,931,862,789,564,910,1437,475,820,1235,961,1188,809,860,701,507,525,948,869,772,719,784,980,415,788,721,804,731,1201,566,435,820,425,691,824,1003,796,1124,753,1325,665,588,980,685,567,446,651,403,676,972,804,816,888,1170,546,563,853,808,809,1069,1306,1124,942,1119,725,789,366,1632,921,297,779,882,986,524,508,954,776,684,1099,708,905,1319,1191,881,520,979,876,755,1019,789,778,747,1144,912,499,704,873,800,958,1060,1218,1189,829,679,1152,1382,983,750,372,733,738,1013,937,963,593,928,707,677,759,713,518,1010,1080,757,846,495,1313,665,784
743,806,1130,827,899,1625,733,1168,1104,1455,1253,1385,851,1498,1454,1059,1588,1041,1068,1032,949,1114,1010,546,603,817,1141,571,1224,1025,542,952,1750,921,547,741,1175,709,648,742,1078,741,1207,1059,898,681,1168,1611,675,1041,1530,1045,1509,1136,1083,951,636,713,1071,976,922,813,1070,1047,544,978,834,975,1020,1686,682,701,1042,612,808,1093,1276,951,1429,1056,1584,949,719,1249,890,684,638,725,501,868,1211,1072,1015,1141,1305,724,713,1040,983,1119,1368,1649,1181,1195,1409,845,1030,512,1914,1184,416,978,1118,1568,671,686,1197,976,811,1400,915,1142,1457,1465,1089,905,1238,1011,895,1291,992,959,950,1444,1131,696,972,1096,1011,1468,1267,1493,1286,1097,963,1402,1587,1215,924,467,967,821,1287,1156,1101,718,1070,956,891,1002,893,740,1085,1618,848,1091,668,1657,889,1095
809,1007,1371,964,976,1956,974,1409,1367,1719,1429,1740,1149,1792,1546,1247,1946,1294,1280,1285,1170,1324,1251,637,692,962,1389,666,1489,1185,666,1064,2041,1022,698,943,1223,781,816,895,1222,827,1484,1140,1013,759,1430,1746,780,1263,1909,1244,1693,1470,1209,1195,822,885,1246,1101,1068,866,1327,1223,591,1235,937,1214,1310,2319,916,761,1230,934,1048,1359,1553,1225,1726,1350,2107,1237,977,1517,1145,758,791,920,678,1212,1422,1341,1215,1326,1454,1070,874,1332,1178,1362,1658,1992,1281,1432,1700,921,1169,668,2536,1449,642,1374,1252,1864,869,772,1453,1179,918,1698,1126,1378,1655,1743,1293,1511,1500,1142,1275,1387,1115,1144,1151,1743,1405,898,1243,1321,1220,1981,1478,1748,1482,1363,1243,1667,1765,1497,1125,624,1185,926,1531,1370,1186,822,1208,1118,1041,1327,1003,969,1269,1867,917,1331,988,2016,1175,1210
995,1223,1607,1115,1133,2291,1210,1684,1647,1986,1612,2053,1239,1877,1665,1439,2063,1593,1491,1454,1415,1547,1482,804,873,1294,1633,788,1721,1278,772,1320,2323,1282,830,1111,1490,911,892,1085,1451,1100,1759,1417,1254,935,1668,1958,993,1378,2144,1557,1824,1799,1311,1440,876,1063,1317,1355,1413,1006,1614,1310,833,1762,1163,1284,1522,2333,1068,871,1427,1209,1282,1620,1830,1501,2021,1385,2361,1519,1088,1790,1194,928,1084,1119,715,1479,1674,1606,1414,1566,1733,1176,950,1650,1372,1615,1955,2246,1435,1671,1987,1023,1364,800,0,1710,876,1727,1320,1949,953,872,1713,1388,1140,1999,1330,1600,1915,2008,1500,1618,1601,1404,1347,1416,1322,1326,1480,2045,1638,1112,1518,1546,1344,2485,1687,2006,1771,1630,1520,1901,1991,1686,1306,760,1419,1016,1806,1577,1492,944,1492,1250,1148,1443,1113,1200,1479,2027,1127,1574,1306,2592,1335,1326
1328,1459,1843,1385,1444,2618,1337,1918,1823,2260,1786,2388,1448,2088,1874,1626,2185,1871,1633,1621,1668,1814,1725,1003,982,1416,1873,874,1904,1513,865,1560,2602,1497,998,1317,1764,1056,1104,1279,1751,1191,2038,1714,1493,1162,1933,0,1271,1486,2496,1807,2137,2139,1539,1692,1039,1423,1467,1508,1527,1102,1899,1573,967,2005,1378,1393,1592,2888,1196,1012,1654,1312,1512,1883,2102,1787,2316,1517,2516,1797,1478,2033,1319,1186,1195,1439,814,1747,1831,1877,1608,1752,2003,1327,1057,1929,1564,1879,2255,2329,1780,1914,2277,1168,1562,1092,0,1966,1025,2087,1419,2103,1161,1005,1970,1605,1238,2086,1528,1815,2026,2254,1616,1757,1761,1488,1431,1539,1566,1506,1706,2347,1893,1277,1807,1768,1656,3214,1892,2267,2062,1898,1803,2140,2208,1924,1520,859,1628,1301,2071,1774,1788,1094,1777,1632,1220,1668,1443,1435,1570,2367,1213,1818,1630,2736,1756,1495
1449,1558,2081,1547,1761,2937,1423,1988,1921,2535,1965,2674,1534,2166,2097,1995,2332,2156,1703,1683,1912,2058,1967,1152,1124,1519,2106,992,2309,1722,962,1809,2883,1705,1193,1507,2038,1118,1139,1418,1912,1300,2313,1769,1770,1394,2429,0,1539,1710,2742,2058,2460,2311,1767,1942,1210,1603,1587,1676,1644,1261,1991,1708,1567,2262,1598,1462,1876,2993,1388,1125,1850,1475,1749,2153,2378,2053,2912,1757,2617,2074,1546,2157,1535,1324,1383,1693,898,2016,2018,2155,1803,1835,2270,1402,1180,2230,1756,2196,2402,2656,2110,2163,2567,1307,1763,1245,0,2128,1287,2239,1543,2161,1241,1143,2178,1835,1368,2303,1730,1969,2389,2508,1715,2379,1858,1663,1515,1797,1817,1689,1915,2653,2140,1505,1988,1983,1878,3953,2027,2534,2355,2170,1939,2323,2440,2160,1724,966,1774,1502,2186,1925,2097,1198,2060,1845,1361,1744,1547,1659,1764,2610,1304,2063,1961,3056,2051,1741
1584,1689,2328,1804,2082,3278,1690,2117,2203,2810,2144,2986,1747,2390,2339,2188,2465,2433,1916,2156,2150,2300,2210,1323,1359,1630,2345,1153,2558,1834,1090,2052,3043,1885,1388,1708,2313,1268,1213,1474,2092,1400,2588,1886,2012,1586,2502,0,1775,1915,3141,2308,2693,2689,1996,2183,1312,1791,1748,1770,1781,1412,2194,2008,1656,2519,1820,1573,2165,3689,1715,1290,2066,1615,1998,2425,0,2115,3205,1830,2872,2348,0,2245,1758,1441,1703,1949,951,2282,2193,2435,2014,1934,2535,1483,1270,2329,1946,2396,2548,2990,2369,2398,2850,1481,1945,1351,0,2480,1565,2458,1642,2557,1303,1297,2450,2069,1599,2497,1936,2028,2761,2759,1942,2612,2022,1922,1661,2732,2081,1872,2119,2961,2376,1656,2093,2204,2306,4559,2107,2789,2647,2443,2104,2587,2662,2396,1914,1171,1873,1586,2354,2174,2405,1353,2343,2058,1486,1814,1624,1888,1845,3177,1395,2298,2159,3123,2341,1992
1796,1950,2579,1872,2402,3436,1925,2182,2555,0,2503,3297,2044,2728,2743,2378,2535,2715,2130,2645,2371,2512,2456,1485,1453,1790,2587,1307,2812,1987,1224,2294,3390,2006,1584,1872,2586,1323,1310,1670,2226,1491,2860,1962,2252,1815,2751,0,1918,2120,0,2557,2780,3031,2222,2430,1585,2082,1811,1913,1924,1583,2476,2274,1802,2809,2040,1644,2456,4331,1965,1463,2285,1791,2253,2700,0,2311,0,2026,3135,2614,0,2609,1983,1545,1959,2206,1034,2547,2542,2713,2067,2131,2807,1699,1370,2544,2137,2580,2680,3325,2438,2630,3136,1585,2368,1496,0,2726,1732,2791,1926,2692,1456,1391,2707,2310,1765,2600,2150,2107,3131,3017,2165,2965,2394,2189,1852,2813,2364,2055,2344,3262,2647,1947,2380,2432,2514,5278,2318,3048,2938,2717,2366,0,2861,2633,2118,1338,2073,1871,2588,2365,2720,1467,2628,2267,1566,1994,1867,2120,2065,3443,1561,2522,2277,3216,2638,2242
2096,2212,2822,2087,2722,3612,2164,2278,2888,0,2860,3618,2342,2830,2940,2566,2659,2994,2342,0,2639,2722,2709,1663,1536,2031,2826,1475,3070,2166,1339,2530,3699,2262,1711,2064,2855,1532,1414,1682,2343,1663,3129,2235,2492,2001,3010,0,2033,2230,0,2809,3090,3372,2448,2685,1858,2152,2063,2218,2031,1794,2837,2539,1943,3115,2261,1883,2737,4977,2168,1597,2552,1900,2506,2977,0,2574,0,2103,3386,2886,0,2874,2207,1730,2224,2466,1112,2814,2846,2991,2193,2357,3086,1836,1533,2864,2328,2676,2847,3664,2763,2869,3310,1740,2561,1568,0,2900,1935,3105,2064,2993,1515,1497,2935,2564,1857,2899,2353,2239,3496,3255,2372,3266,2809,2451,1990,3040,2622,2236,2543,0,2891,2172,2670,2608,2637,5852,2531,3286,3233,2991,2648,0,3290,2867,2332,1402,2303,2154,2891,2566,3031,1660,2912,2367,1680,2240,1991,2345,2417,0,1675,2749,2539,3472,2801,2493
2170,2459,3056,2227,2956,3930,2400,2439,3164,0,3039,3942,2638,2983,3193,2753,2881,3268,2552,0,2865,2960,2967,1814,1664,2137,3070,1592,3179,2374,1499,2770,3986,2470,1881,2315,3126,1673,1567,1866,2569,1783,3430,2506,2731,2435,3267,0,2114,2325,0,3067,3245,0,2677,2936,1986,2515,2313,2505,2339,1892,2918,2800,2247,3692,2480,2223,0,5785,2295,1725,2731,2103,2767,3260,0,2881,0,2292,3645,3150,0,3141,2430,1795,2505,2726,1196,0,3068,0,2383,2691,3359,1945,1654,3473,2518,2897,3017,0,0,3107,3426,1980,2678,1684,0,3120,2037,3442,2195,3545,1623,1586,3125,2846,1932,3200,2558,2462,3863,3499,2588,0,3070,2771,2169,3286,0,2334,2734,0,3132,2412,2950,2893,2927,7038,2804,3531,3526,3265,2933,0,3432,3098,2441,1521,2504,2440,2974,2783,3345,1768,3193,2478,1863,2492,2173,2567,2497,0,1771,2985,2656,3842,2941,2746
2232,2725,3292,2441,3042,0,2636,2709,3426,0,3220,4075,2936,3281,3325,2965,2977,3547,2763,0,3077,3208,3202,1997,1777,2166,3325,1640,3386,2477,1660,3010,0,2673,2171,2513,3399,1755,1736,1955,2819,1890,3683,2778,2935,2510,3508,0,2248,2534,0,3330,3389,0,2911,0,2079,2697,2565,2588,2505,1979,6215,3062,2395,3938,2703,2293,0,6413,2470,1872,2957,2113,3033,3541,0,3135,0,2479,4088,3412,0,3412,2652,1906,2783,2978,1259,0,3360,0,2498,2940,3635,2059,1773,3791,2704,2955,3147,0,0,3340,0,2208,2747,1843,0,3220,2270,3657,2298,3876,1813,1820,3401,3141,2020,3500,2771,2696,4219,3755,0,0,3334,0,2432,3530,0,2416,2859,0,3409,2619,3318,3102,0,7162,3205,3770,3616,3538,3249,0,3604,3570,2705,1588,2780,2726,3425,3157,3659,1954,3476,2662,2069,2742,2357,2798,2655,0,1868,3224,0,4003,3087,2998
2350,3002,3521,2654,3364,0,2864,2804,3640,0,3398,4260,3234,3581,3463,3131,3061,3833,2975,0,3304,3403,0,2150,1890,2320,3602,1759,3614,2607,1736,3255,0,3033,2366,2680,3677,1868,1901,2068,3097,1962,3956,3052,3176,2731,3779,0,2405,2739,0,3588,0,0,3151,0,2129,2938,2777,2843,2701,2119,6719,3324,2513,4464,2913,2364,0,6495,2649,1938,3188,2339,3290,3747,0,3417,0,2746,4162,3676,0,0,2871,1996,3029,3235,1358,0,3544,0,2578,0,3770,2209,1961,4099,3066,3213,0,0,0,3574,0,2352,3054,2179,0,3461,2369,3826,2533,4309,1914,1980,3600,3443,2145,3799,2895,0,4573,4015,0,0,3595,0,2662,3778,0,2598,2921,0,3636,2823,0,3249,0,7322,3598,4017,4118,3809,3475,0,3800,3745,2873,1706,3030,3008,3679,3445,3964,2065,3761,2812,2280,2821,2542,3033,2943,0,2060,3466,0,4198,3236,3252
2603,3254,3747,2868,3686,0,2958,2953,3933,0,3580,4580,3529,3875,3807,3323,3133,4116,3187,0,3543,3470,0,2309,2070,2453,3830,1811,3882,2873,1838,3503,0,3243,2452,0,0,1996,2065,2129,3376,2040,4229,3329,3453,2950,4061,0,2504,2961,0,3850,0,0,3395,0,2248,3252,2937,3006,2892,2420,6839,0,2608,4706,3123,2667,0,6637,2835,2016,3415,2550,3548,3826,0,3511,0,2981,4419,3936,0,0,3088,2133,3282,3401,1636,0,3795,0,2772,0,3917,2400,2126,4374,3245,3454,0,0,0,3804,0,2572,3227,2442,0,3702,2513,4179,2772,4530,2004,2092,3823,3736,2332,4045,2988,0,4923,4281,0,0,4122,0,0,4033,0,2797,3113,0,3916,3114,0,3474,0,7703,3813,4260,4710,4077,3710,0,3980,4042,3037,1771,3190,3289,4199,3696,4283,2204,3942,2893,2424,2995,2628,3259,3238,0,2151,3700,0,4314,3457,3511
2782,3494,3959,3035,4009,0,3326,3145,4063,0,3772,4902,3824,4171,3909,3520,3205,4395,3398,0,3954,3692,0,2491,2162,2576,4082,1927,4165,3050,1951,3759,0,3446,2513,0,0,2170,2210,2262,0,2239,4503,3607,3690,3203,4346,0,2616,3186,0,4108,0,0,3641,0,2365,3440,3072,3164,3028,2813,6890,0,3130,4952,3336,2773,0,7037,3128,2123,3641,2688,3802,4110,0,3734,0,3180,4675,4192,0,0,3211,2234,3523,3732,1842,0,4016,0,2967,0,4195,2500,2300,4663,3426,3818,0,0,0,4039,0,2785,3431,2612,0,3949,2621,4518,2878,4745,2154,2163,4051,4023,2568,4454,3193,0,5283,4536,0,0,4383,0,0,4293,0,2979,3305,0,4167,3344,0,3635,0,0,4030,4399,5004,4342,4101,0,4192,4279,3199,1859,3476,3571,4469,3938,4606,2608,4044,3104,2499,3242,2725,3487,3435,0,2246,3934,0,4882,3841,3772
2847,3629,4094,3252,4332,0,3564,3387,4372,0,3942,5219,4123,4468,4062,3721,0,4666,3610,0,4291,3912,0,2673,2386,2766,4317,2025,4460,3224,2065,4029,0,0,2698,0,0,2249,2289,2521,0,2372,4775,3889,3933,3402,4624,0,2697,3410,0,4572,0,0,3881,0,2456,3634,3226,3276,3095,3004,7081,0,3466,5250,3480,2843,0,7147,3312,2223,3847,2834,4048,4385,0,3943,0,3307,4931,4453,0,0,3302,2354,3764,3981,1956,0,4233,0,3161,0,4474,2700,2367,4946,3609,4014,0,0,0,0,0,0,3573,2779,0,4364,2769,4874,2994,4845,2294,2272,4390,4318,2772,4755,0,0,0,4803,0,0,4546,0,0,4554,0,3146,3477,0,4407,3547,0,3862,0,0,4463,4518,5303,4610,4202,0,4376,4515,3366,2018,3741,3859,4802,4164,4925,2911,0,3316,2705,3488,2838,3784,3538,0,2342,4176,0,5221,4135,4032
3124,3951,4164,3335,4652,0,3805,3401,4648,0,4307,5532,4421,4765,4127,3936,0,4933,3845,0,4545,4158,0,2807,2464,2888,4563,2075,4746,3329,2288,4311,0,0,2845,0,0,2421,2449,2648,0,2537,5053,4168,4172,3592,4897,0,2794,3636,0,4786,0,0,4120,0,2673,3821,3588,3401,3257,3179,7243,0,3534,5823,3546,3074,0,7233,3444,2350,4076,2971,4301,4520,0,4212,0,3388,0,4714,0,0,3388,2430,3980,4241,2029,0,4426,0,3388,0,4761,2970,2605,5213,3991,4077,0,0,0,0,0,0,3757,2924,0,4450,3033,5237,3225,5135,2364,2498,4541,4621,2828,5056,0,0,0,5070,0,0,4649,0,0,4810,0,3329,3681,0,4695,3761,0,3958,0,0,4666,4769,5597,0,4364,0,4578,4751,3546,2088,3871,4142,5037,4376,5244,3208,0,3528,2800,3734,3018,3943,3843,0,2531,4413,0,5564,4428,4188
3444,4147,4387,3711,4774,0,3953,3454,4889,0,4491,5852,4718,4874,4287,4316,0,5212,4044,0,4750,4451,0,2866,2540,3138,4806,2198,5036,3487,2413,4601,0,0,2950,0,0,2504,2572,2750,0,2662,5331,4254,4413,3799,5165,0,2867,3863,0,5007,0,0,4396,0,2748,4008,3855,3487,3510,3340,7305,0,3629,6062,3757,3471,0,7320,3623,2476,4283,3149,4556,4669,0,4494,0,3444,0,4811,0,0,3481,2571,4193,4508,2145,0,4699,0,3554,0,5048,3067,2744,5498,4379,4207,0,0,0,0,0,0,3945,3041,0,4701,3181,5530,3455,5428,2484,2589,0,4975,3015,5352,0,0,0,5161,0,0,4910,0,0,5067,0,3509,3903,0,4944,3999,0,4127,0,0,4899,5021,5891,0,4541,0,4654,4986,3725,2162,4176,0,5320,4585,5572,3498,0,3738,2927,3972,0,4165,3992,0,2625,4651,0,5788,4726,4294
3647,4340,4620,3926,4972,0,4043,3648,5193,0,4674,6180,5011,0,4379,4359,0,5489,0,0,4991,4683,0,2947,2707,3260,5044,2250,5332,3586,2469,0,0,0,3148,0,0,2579,2691,2831,0,2810,5607,4414,4657,3910,5424,0,2989,4089,0,5238,0,0,4600,0,2822,4196,4019,3727,3583,3509,7393,0,3731,6318,3972,3887,0,7406,0,2645,4462,3236,4799,4829,0,4775,0,3949,0,4981,0,0,3612,2714,4437,0,2310,0,4939,0,3747,0,5326,3185,2845,5791,4573,4516,0,0,0,0,0,0,4152,3217,0,4958,3374,5734,3684,5574,2674,2725,0,5188,3270,5656,0,0,0,5322,0,0,5174,0,0,5323,0,3690,4114,0,5182,4192,0,4357,0,0,5118,5279,6186,0,4675,0,4729,5284,3916,2377,4432,0,5562,4799,5669,3789,0,3949,3061,4213,0,4241,4148,0,2720,4893,0,5911,5024,4555
3925,4536,4871,4140,5293,0,4277,3831,5543,0,4857,6513,5311,0,4886,4563,0,5762,0,0,5296,4902,0,3130,2871,3426,5238,2347,5628,0,2641,0,0,0,3342,0,0,2681,2833,3038,0,3088,5905,4638,4856,4013,0,0,3067,4313,0,5459,0,0,0,0,0,4382,4141,3949,3693,3695,7613,0,3890,6589,4184,4339,0,7519,0,2799,4663,3339,0,5123,0,5046,0,4171,0,5248,0,0,3670,2807,4803,0,2394,0,5361,0,0,0,0,3345,3028,6073,4763,4833,0,0,0,0,0,0,4329,3312,0,5211,3452,5831,3865,5778,2784,2861,0,5244,3391,5955,0,0,0,5566,0,0,5296,0,0,5580,0,3870,4425,0,5463,4422,0,4552,0,0,5337,5552,6478,0,4830,0,0,5449,4117,2435,4617,0,5858,5022,5908,4076,0,4162,3130,4463,0,4383,4395,0,2913,5139,0,6258,5318,4816
4114,4743,5135,4357,5478,0,4521,3904,5862,0,5042,6720,5610,0,0,4665,0,6035,0,0,5754,5139,0,3291,2979,3546,5505,2426,5909,0,2752,0,0,0,3521,0,0,2890,3062,3231,0,3379,6158,4859,5134,4142,0,0,3194,4533,0,5685,0,0,0,0,0,4566,4287,4252,3908,3856,7717,0,4025,7135,4398,4558,0,7665,0,2919,4874,3599,0,5191,0,5301,0,4412,0,5512,0,0,3731,2901,5143,0,2526,0,5507,0,0,0,0,3474,3226,6351,4955,4955,0,0,0,0,0,0,4461,3618,0,5464,0,6170,4142,5982,2959,2972,0,5544,3529,6255,0,0,0,5799,0,0,5432,0,0,5839,0,4048,4706,0,5702,0,0,4745,0,0,5556,5816,6771,0,4881,0,0,5685,4296,2606,4818,0,6107,0,6240,4359,0,4380,3294,4830,0,4601,4689,0,3005,5382,0,6597,5564,4894
4217,4959,5393,4629,0,0,4763,4161,6141,0,5226,0,5907,0,0,4836,0,6299,0,0,5891,5424,0,3443,3188,3736,5732,2644,6059,0,2858,0,0,0,3734,0,0,3005,3172,3477,0,3593,6437,5006,5218,4224,0,0,3276,4601,0,5937,0,0,0,0,0,4746,4389,4667,3979,4117,7800,0,4220,7381,4830,4780,0,7829,0,3164,5088,3812,0,5445,0,5563,0,4652,0,5776,0,0,3945,2968,5416,0,2658,0,5716,0,0,0,0,3603,3324,6641,5148,5267,0,0,0,0,0,0,4781,3809,0,5717,0,6506,4371,6361,3039,3060,0,5855,3603,6556,0,0,0,6040,0,0,5680,0,0,6092,0,4243,5046,0,5960,0,0,4936,0,0,5995,6066,7065,0,4986,0,0,5996,4479,2775,5024,0,6668,0,6456,0,0,4604,3446,5199,0,0,4989,0,3100,0,0,6822,5927,0
4328,5205,5671,4711,0,0,5007,4412,6382,0,5410,0,6183,0,0,5040,0,0,0,0,6138,5696,0,3568,3300,3818,5960,2743,6366,0,3031,0,0,0,3930,0,0,3239,3243,3503,0,3884,6714,5557,5295,4340,0,0,3386,4748,0,6252,0,0,0,0,0,4920,4739,5074,4096,4308,7849,0,4496,7642,4913,5232,0,8006,0,3209,5314,3922,0,5595,0,5833,0,4930,0,6046,0,0,4206,3116,5695,0,2908,0,5882,0,0,0,0,3687,3499,6940,5341,5553,0,0,0,0,0,0,5040,4074,0,5930,0,6799,4603,6546,3183,3161,0,6173,3745,6856,0,0,0,6288,0,0,5962,0,0,6366,0,4405,5204,0,6216,0,0,5128,0,0,6433,6546,7356,0,5148,0,0,6157,4677,2944,5147,0,7213,0,6894,0,0,4818,3621,5671,0,0,5346,0,3196,0,0,6969,6174,0
4448,5470,0,4755,0,0,5255,4591,6629,0,5595,0,6340,0,0,5237,0,0,0,0,6259,5777,0,3749,3502,4061,6190,2836,6477,0,3161,0,0,0,4126,0,0,3428,3316,3676,0,3957,6991,5831,5414,4420,0,0,3571,4952,0,6522,0,0,0,0,0,5053,4934,5201,4294,4468,0,0,4611,7915,5019,5686,0,0,0,3407,5541,4134,0,5790,0,6112,0,5136,0,6305,0,0,4380,3257,5994,0,3050,0,6075,0,0,0,0,3843,3567,7211,5535,5847,0,0,0,0,0,0,5173,4170,0,6222,0,7119,4816,6742,3384,3505,0,6293,4237,7153,0,0,0,6522,0,0,6191,0,0,6591,0,4588,5413,0,6475,0,0,5347,0,0,6652,6796,7645,0,5351,0,0,6391,4898,3091,5271,0,7442,0,6986,0,0,5023,3773,5903,0,0,5889,0,3300,0,0,7266,6524,0
4601,5724,0,5008,0,0,5500,4679,6963,0,5780,0,6490,0,0,5430,0,0,0,0,6401,5934,0,3907,3640,4225,6422,3035,6746,0,3298,0,0,0,4221,0,0,3673,3510,3864,0,4227,7264,6374,5593,4575,0,0,3677,5164,0,6783,0,0,0,0,0,5251,5206,5310,4440,4635,0,0,4844,0,5310,6546,0,0,0,3437,5759,4246,0,5934,0,6375,0,5378,0,6828,0,0,4606,3327,6303,0,3171,0,6387,0,0,0,0,3960,3650,7496,5791,6080,0,0,0,0,0,0,5350,4520,0,6415,0,7463,4982,6938,3554,3685,0,6490,4457,7456,0,0,0,6755,0,0,6374,0,0,6844,0,4767,5495,0,6723,0,0,5459,0,0,6874,7037,0,0,5527,0,0,6621,5089,3216,5403,0,7979,0,7179,0,0,5127,3929,6354,0,0,6190,0,3479,0,0,7337,6830,0
4910,6001,0,5433,0,0,5748,4742,7233,0,5964,0,6791,0,0,5622,0,0,0,0,6656,0,0,4146,3742,4442,6657,3079,7021,0,3542,0,0,0,4332,0,0,3879,3671,3930,0,4674,7546,6644,5774,4881,0,0,3787,5325,0,7031,0,0,0,0,0,5427,5477,5472,4584,4785,0,0,5090,0,5544,6964,0,0,0,3620,5974,4445,0,6072,0,6482,0,5616,0,7097,0,0,4839,3434,6578,0,3242,0,6641,0,0,0,0,4140,3748,0,5885,6380,0,0,0,0,0,0,5544,4904,0,6523,0,7656,5065,7102,3633,3901,0,6905,4674,7754,0,0,0,6997,0,0,6473,0,0,7098,0,4950,5594,0,6865,0,0,5786,0,0,7095,7268,0,0,5598,0,0,6825,5261,3287,0,0,0,0,7476,0,0,5231,4035,6857,0,0,6489,0,3575,0,0,7615,0,0
4973,6264,0,5647,0,0,5991,4932,7316,0,6146,0,7105,0,0,5816,0,0,0,0,6960,0,0,4230,3880,4606,6895,0,7284,0,3647,0,0,0,4489,0,0,4007,3736,4001,0,5012,7825,6914,5855,5244,0,0,3864,5630,0,0,0,0,0,0,0,5612,5594,5558,4733,5000,0,0,5206,0,5691,7172,0,0,0,3689,6189,4572,0,6355,0,6627,0,5854,0,7367,0,0,5303,3435,6828,0,3329,0,7074,0,0,0,0,4265,3807,0,6174,6619,0,0,0,0,0,0,5742,5248,0,6717,0,7784,5296,7353,3764,3981,0,7077,4890,8054,0,0,0,7251,0,0,6709,0,0,7349,0,5148,5828,0,6938,0,0,5922,0,0,7318,7505,0,0,5722,0,0,7086,5429,3380,0,0,0,0,7785,0,0,5395,4153,7095,0,0,7101,0,3774,0,0,7969,0,0
5227,6511,0,5861,0,0,6225,5194,7580,0,6310,0,7402,0,0,5937,0,0,0,0,7151,0,0,4297,4096,4713,7133,0,7540,0,3816,0,0,0,4709,0,0,4150,3893,4194,0,5080,8101,7180,6058,5532,0,0,3996,5821,0,0,0,0,0,0,0,5700,5744,5813,4878,5205,0,0,5322,0,5773,7373,0,0,0,3753,6405,4763,0,6638,0,6882,0,6099,0,7648,0,0,5532,3579,7325,0,3450,0,0,0,0,0,0,4292,3900,0,6310,6859,0,0,0,0,0,0,5871,5443,0,0,0,8109,5527,7547,3856,4149,0,7211,5099,8355,0,0,0,7513,0,0,6988,0,0,7424,0,5314,6151,0,7051,0,0,6209,0,0,7542,7647,0,0,5826,0,0,7321,5598,3557,0,0,0,0,0,0,0,5553,4200,7581,0,0,7433,0,3866,0,0,0,0,0
5398,6775,0,6079,0,0,6457,5446,7894,0,6488,0,7677,0,0,6013,0,0,0,0,7376,0,0,4577,4322,5037,7379,0,7793,0,3957,0,0,0,4826,0,0,4280,4059,4388,0,5305,0,7442,6334,5636,0,0,4160,6039,0,0,0,0,0,0,0,5801,6013,6306,5025,5402,0,0,5428,0,5840,7569,0,0,0,3826,6643,4919,0,6914,0,7142,0,6338,0,7931,0,0,5757,3670,7600,0,3528,0,0,0,0,0,0,4429,4008,0,6428,7160,0,0,0,0,0,0,6058,5823,0,0,0,0,5761,7755,4076,4414,0,7370,5313,8655,0,0,0,7763,0,0,7188,0,0,7512,0,5407,7049,0,7233,0,0,6346,0,0,7763,7736,0,0,5955,0,0,7557,5785,3626,0,0,0,0,0,0,0,5635,4287,7661,0,0,7688,0,3961,0,0,0,0,0
5522,7088,0,6215,0,0,6667,5592,0,0,6694,0,7766,0,0,6406,0,0,0,0,7606,0,0,4859,4432,5128,7624,0,8041,0,4047,0,0,0,4913,0,0,4349,4105,4584,0,5541,0,7705,6577,5882,0,0,4445,6188,0,0,0,0,0,0,0,6001,6283,6445,5171,5570,0,0,5506,0,5997,7765,0,0,0,3989,6857,5056,0,7186,0,7407,0,6598,0,8214,0,0,5844,3791,7849,0,3630,0,0,0,0,0,0,4576,4176,0,6755,7233,0,0,0,0,0,0,6253,6008,0,0,0,0,5992,7938,4216,4569,0,7678,5535,8956,0,0,0,8015,0,0,7273,0,0,7601,0,5495,7273,0,7472,0,0,6647,0,0,7989,7970,0,0,6040,0,0,7791,5998,3791,0,0,0,0,0,0,0,5890,4365,0,0,0,8004,0,4060,0,0,0,0,0
5644,7241,0,6522,0,0,6881,5665,0,0,6875,0,7998,0,0,6601,0,0,0,0,7840,0,0,4947,4521,5203,7866,0,0,0,4131,0,0,0,5105,0,0,4487,4237,4782,0,5670,0,0,6816,6109,0,0,4749,6259,0,0,0,0,0,0,0,6194,6565,6635,5298,5757,0,0,5634,0,6093,7960,0,0,0,4074,7075,5218,0,7467,0,7667,0,6822,0,0,0,0,6192,3869,8064,0,0,0,0,0,0,0,0,4716,4221,0,6822,7436,0,0,0,0,0,0,6434,6151,0,0,0,0,6224,8140,4373,4671,0,7996,5751,9553,0,0,0,8274,0,0,7498,0,0,7852,0,5677,7427,0,7718,0,0,6757,0,0,0,0,0,0,6161,0,0,8023,6254,3854,0,0,0,0,0,0,0,6098,4459,0,0,0,8248,0,4253,0,0,0,0,0
5975,7388,0,6745,0,0,7111,5921,0,0,7079,0,8141,0,0,6798,0,0,0,0,8081,0,0,5032,4701,5470,8102,0,0,0,4271,0,0,0,5299,0,0,4557,4443,4981,0,5961,0,0,7019,6324,0,0,4846,6469,0,0,0,0,0,0,0,6337,6632,6828,5452,5883,0,0,5738,0,6229,8154,0,0,0,4240,7249,5356,0,7744,0,7943,0,7063,0,0,0,0,6402,3958,0,0,0,0,0,0,0,0,0,4993,4371,0,0,7623,0,0,0,0,0,0,6603,6431,0,0,0,0,6394,0,4506,4803,0,8305,5968,9854,0,0,0,8533,0,0,7745,0,0,8106,0,5875,7857,0,7955,0,0,6864,0,0,0,0,0,0,6223,0,0,8253,6463,3961,0,0,0,0,0,0,0,6523,4567,0,0,0,8531,0,4347,0,0,0,0,0
6203,7579,0,6968,0,0,7350,6039,0,0,7301,0,8299,0,0,6998,0,0,0,0,8163,0,0,5190,4834,5598,8339,0,0,0,4344,0,0,0,5494,0,0,4708,4513,5180,0,6226,0,0,7296,6557,0,0,5031,6685,0,0,0,0,0,0,0,6378,6743,7090,5595,6044,0,0,5839,0,6302,8347,0,0,0,4337,7466,5520,0,8025,0,0,0,7332,0,0,0,0,6618,4151,0,0,0,0,0,0,0,0,0,5198,4545,0,0,7897,0,0,0,0,0,0,6800,6619,0,0,0,0,6456,0,4582,4912,0,0,6188,10358,0,0,0,0,0,0,8027,0,0,0,0,6042,8058,0,8212,0,0,7017,0,0,0,0,0,0,6392,0,0,8488,6669,4141,0,0,0,0,0,0,0,6613,4729,0,0,0,8767,0,4442,0,0,0,0,0
6260,7753,0,7190,0,0,7587,6159,0,0,7425,0,0,0,0,7197,0,0,0,0,0,0,0,5329,4913,5690,8584,0,0,0,4442,0,0,0,5691,0,0,4953,4636,5284,0,6437,0,0,7537,6792,0,0,5129,6900,0,0,0,0,0,0,0,6566,6825,7270,5735,6198,0,0,5840,0,6445,0,0,0,0,4435,7700,5646,0,0,0,0,0,7566,0,0,0,0,6836,4240,0,0,0,0,0,0,0,0,0,5330,4635,0,0,8157,0,0,0,0,0,0,7002,6970,0,0,0,0,6688,0,4654,5050,0,0,6410,10455,0,0,0,0,0,0,8313,0,0,0,0,6222,0,0,0,0,0,7175,0,0,0,0,0,0,6535,0,0,8723,6849,4324,0,0,0,0,0,0,0,6818,4832,0,0,0,9040,0,4537,0,0,0,0,0
6357,7919,0,7409,0,0,7824,6296,0,0,7602,0,0,0,0,7392,0,0,0,0,0,0,0,5639,5021,5934,0,0,0,0,4525,0,0,0,5906,0,0,5119,4756,5367,0,6778,0,0,7777,6883,0,0,5252,7118,0,0,0,0,0,0,0,6771,7096,7400,5984,6386,0,0,6001,0,6581,0,0,0,0,4525,7880,5798,0,0,0,0,0,7785,0,0,0,0,7058,4377,0,0,0,0,0,0,0,0,0,5568,4716,0,0,0,0,0,0,0,0,0,7211,7232,0,0,0,0,6920,0,4954,5168,0,0,6633,10757,0,0,0,0,0,0,0,0,0,0,0,6404,0,0,0,0,0,7418,0,0,0,0,0,0,6646,0,0,8957,7025,4516,0,0,0,0,0,0,0,6988,5043,0,0,0,9282,0,4631,0,0,0,0,0
6470,8126,0,7623,0,0,0,6417,0,0,7782,0,0,0,0,7588,0,0,0,0,0,0,0,5810,5167,6058,0,0,0,0,4709,0,0,0,6082,0,0,5200,4873,5458,0,7351,0,0,8016,7017,0,0,5326,7339,0,0,0,0,0,0,0,6973,7189,7928,6153,6569,0,0,6296,0,6656,0,0,0,0,4659,8095,6023,0,0,0,0,0,8022,0,0,0,0,7274,4464,0,0,0,0,0,0,0,0,0,5711,4852,0,0,0,0,0,0,0,0,0,7519,7304,0,0,0,0,7152,0,5046,5246,0,0,6848,0,0,0,0,0,0,0,0,0,0,0,0,6588,0,0,0,0,0,7589,0,0,0,0,0,0,6761,0,0,9193,7181,4692,0,0,0,0,0,0,0,7126,5141,0,0,0,0,0,4816,0,0,0,0,0
6720,8334,0,7703,0,0,0,6585,0,0,7964,0,0,0,0,7785,0,0,0,0,0,0,0,5912,5280,6174,0,0,0,0,4873,0,0,0,6236,0,0,5414,5050,5578,0,7646,0,0,8257,7111,0,0,5544,7555,0,0,0,0,0,0,0,7178,7373,0,6310,6663,0,0,6560,0,6863,0,0,0,0,4742,8298,6174,0,0,0,0,0,8245,0,0,0,0,7491,4594,0,0,0,0,0,0,0,0,0,5836,4950,0,0,0,0,0,0,0,0,0,7706,7460,0,0,0,0,7383,0,5174,5434,0,0,7286,0,0,0,0,0,0,0,0,0,0,0,0,6770,0,0,0,0,0,7816,0,0,0,0,0,0,0,0,0,9426,7404,4768,0,0,0,0,0,0,0,7227,5293,0,0,0,0,0,5001,0,0,0,0,0
6976,8473,0,7837,0,0,0,6686,0,0,0,0,0,0,0,7977,0,0,0,0,0,0,0,6094,5360,6306,0,0,0,0,4983,0,0,0,6472,0,0,5586,5113,5774,0,7767,0,0,8347,7212,0,0,5618,7776,0,0,0,0,0,0,0,7374,7648,0,6429,6769,0,0,6713,0,7063,0,0,0,0,4814,0,6346,0,0,0,0,0,0,0,0,0,0,7678,4699,0,0,0,0,0,0,0,0,0,5918,5091,0,0,0,0,0,0,0,0,0,7798,7655,0,0,0,0,7615,0,5244,5582,0,0,7510,0,0,0,0,0,0,0,0,0,0,0,0,6954,0,0,0,0,0,8012,0,0,0,0,0,0,0,0,0,9660,7583,4874,0,0,0,0,0,0,0,7426,5420,0,0,0,0,0,5094,0,0,0,0,0
7074,8536,0,8051,0,0,0,6777,0,0,0,0,0,0,0,8170,0,0,0,0,0,0,0,6270,5459,6541,0,0,0,0,5103,0,0,0,6730,0,0,5701,5235,5913,0,7922,0,0,0,7318,0,0,5835,0,0,0,0,0,0,0,0,7747,7925,0,6567,6861,0,0,6923,0,7261,0,0,0,0,4879,0,6450,0,0,0,0,0,0,0,0,0,0,7821,4813,0,0,0,0,0,0,0,0,0,6141,5194,0,0,0,0,0,0,0,0,0,7956,7967,0,0,0,0,7846,0,5323,5784,0,0,7728,0,0,0,0,0,0,0,0,0,0,0,0,7137,0,0,0,0,0,0,0,0,0,0,0,0,0,0,0,9896,7807,4968,0,0,0,0,0,0,0,7625,5552,0,0,0,0,0,5185,0,0,0,0,0
7175,8756,0,0,0,0,0,6970,0,0,0,0,0,0,0,0,0,0,0,0,0,0,0,6419,5567,6662,0,0,0,0,5254,0,0,0,6865,0,0,5796,5358,5973,0,8104,0,0,0,7588,0,0,5912,0,0,0,0,0,0,0,0,7952,8201,0,6705,6958,0,0,7234,0,7467,0,0,0,0,4961,0,6565,0,0,0,0,0,0,0,0,0,0,7943,4926,0,0,0,0,0,0,0,0,0,6496,5244,0,0,0,0,0,0,0,0,0,8141,8238,0,0,0,0,8014,0,5433,5881,0,0,7948,0,0,0,0,0,0,0,0,0,0,0,0,7317,0,0,0,0,0,0,0,0,0,0,0,0,0,0,0,10125,7966,5065,0,0,0,0,0,0,0,7824,5677,0,0,0,0,0,5278,0,0,0,0,0
7403,9010,0,0,0,0,0,0,0,0,0,0,0,0,0,0,0,0,0,0,0,0,0,6477,5643,6850,0,0,0,0,5532,0,0,0,7203,0,0,5950,5524,6173,0,0,0,0,0,7814,0,0,6104,0,0,0,0,0,0,0,0,8152,8475,0,6841,7185,0,0,7402,0,7661,0,0,0,0,5011,0,6690,0,0,0,0,0,0,0,0,0,0,8119,5059,0,0,0,0,0,0,0,0,0,6605,5383,0,0,0,0,0,0,0,0,0,8340,8407,0,0,0,0,8310,0,5548,5950,0,0,8169,0,0,0,0,0,0,0,0,0,0,0,0,7497,0,0,0,0,0,0,0,0,0,0,0,0,0,0,0,10354,8179,5128,0,0,0,0,0,0,0,0,5839,0,0,0,0,0,5375,0,0,0,0,0
7694,9191,0,0,0,0,0,0,0,0,0,0,0,0,0,0,0,0,0,0,0,0,0,6728,5755,6982,0,0,0,0,5721,0,0,0,7451,0,0,6090,5693,6370,0,0,0,0,0,7994,0,0,6204,0,0,0,0,0,0,0,0,8363,9023,0,6980,7301,0,0,7663,0,7874,0,0,0,0,5239,0,6896,0,0,0,0,0,0,0,0,0,0,0,5274,0,0,0,0,0,0,0,0,0,6740,5483,0,0,0,0,0,0,0,0,0,8537,8600,0,0,0,0,0,0,5674,6024,0,0,8394,0,0,0,0,0,0,0,0,0,0,0,0,7551,0,0,0,0,0,0,0,0,0,0,0,0,0,0,0,10587,0,5257,0,0,0,0,0,0,0,0,5942,0,0,0,0,0,5469,0,0,0,0,0
7786,9256,0,0,0,0,0,0,0,0,0,0,0,0,0,0,0,0,0,0,0,0,0,6878,5831,7148,0,0,0,0,5860,0,0,0,7648,0,0,6361,5835,6567,0,0,0,0,0,8227,0,0,6338,0,0,0,0,0,0,0,0,8554,9299,0,7180,7386,0,0,7792,0,7978,0,0,0,0,5294,0,7056,0,0,0,0,0,0,0,0,0,0,0,5369,0,0,0,0,0,0,0,0,0,7025,5565,0,0,0,0,0,0,0,0,0,8788,8743,0,0,0,0,0,0,5782,6089,0,0,0,0,0,0,0,0,0,0,0,0,0,0,0,7679,0,0,0,0,0,0,0,0,0,0,0,0,0,0,0,10822,0,5325,0,0,0,0,0,0,0,0,6051,0,0,0,0,0,5564,0,0,0,0,0
0,9336,0,0,0,0,0,0,0,0,0,0,0,0,0,0,0,0,0,0,0,0,0,7023,5977,7306,0,0,0,0,6001,0,0,0,7844,0,0,6416,5922,6761,0,0,0,0,0,8296,0,0,6414,0,0,0,0,0,0,0,0,8953,9575,0,7255,7549,0,0,7921,0,8096,0,0,0,0,5385,0,7248,0,0,0,0,0,0,0,0,0,0,0,5435,0,0,0,0,0,0,0,0,0,7208,5719,0,0,0,0,0,0,0,0,0,8950,9019,0,0,0,0,0,0,5853,6210,0,0,0,0,0,0,0,0,0,0,0,0,0,0,0,7762,0,0,0,0,0,0,0,0,0,0,0,0,0,0,0,11056,0,5442,0,0,0,0,0,0,0,0,6217,0,0,0,0,0,5761,0,0,0,0,0
0,9524,0,0,0,0,0,0,0,0,0,0,0,0,0,0,0,0,0,0,0,0,0,7161,6197,7504,0,0,0,0,6057,0,0,0,0,0,0,6638,6004,6863,0,0,0,0,0,8388,0,0,6495,0,0,0,0,0,0,0,0,9078,9710,0,7326,7759,0,0,8093,0,8323,0,0,0,0,5454,0,7479,0,0,0,0,0,0,0,0,0,0,0,5537,0,0,0,0,0,0,0,0,0,7456,5805,0,0,0,0,0,0,0,0,0,9128,9175,0,0,0,0,0,0,6026,6329,0,0,0,0,0,0,0,0,0,0,0,0,0,0,0,7859,0,0,0,0,0,0,0,0,0,0,0,0,0,0,0,11292,0,5506,0,0,0,0,0,0,0,0,6256,0,0,0,0,0,5848,0,0,0,0,0
0,9765,0,0,0,0,0,0,0,0,0,0,0,0,0,0,0,0,0,0,0,0,0,7330,6294,7636,0,0,0,0,6140,0,0,0,0,0,0,6856,6071,6986,0,0,0,0,0,8477,0,0,6675,0,0,0,0,0,0,0,0,9160,9849,0,7608,7926,0,0,8232,0,8434,0,0,0,0,5577,0,7637,0,0,0,0,0,0,0,0,0,0,0,5619,0,0,0,0,0,0,0,0,0,7725,5958,0,0,0,0,0,0,0,0,0,9292,9367,0,0,0,0,0,0,6127,6458,0,0,0,0,0,0,0,0,0,0,0,0,0,0,0,8050,0,0,0,0,0,0,0,0,0,0,0,0,0,0,0,11527,0,5617,0,0,0,0,0,0,0,0,6352,0,0,0,0,0,5942,0,0,0,0,0
0,9801,0,0,0,0,0,0,0,0,0,0,0,0,0,0,0,0,0,0,0,0,0,7480,6496,7751,0,0,0,0,6409,0,0,0,0,0,0,6926,6191,7118,0,0,0,0,0,8580,0,0,6909,0,0,0,0,0,0,0,0,9360,10397,0,7667,0,0,0,0,0,8543,0,0,0,0,5719,0,7788,0,0,0,0,0,0,0,0,0,0,0,5744,0,0,0,0,0,0,0,0,0,7814,6044,0,0,0,0,0,0,0,0,0,9523,9511,0,0,0,0,0,0,6212,6536,0,0,0,0,0,0,0,0,0,0,0,0,0,0,0,8206,0,0,0,0,0,0,0,0,0,0,0,0,0,0,0,11763,0,5738,0,0,0,0,0,0,0,0,6470,0,0,0,0,0,6134,0,0,0,0,0
0,9874,0,0,0,0,0,0,0,0,0,0,0,0,0,0,0,0,0,0,0,0,0,7787,6649,7867,0,0,0,0,6534,0,0,0,0,0,0,7070,6424,7159,0,0,0,0,0,0,0,0,7080,0,0,0,0,0,0,0,0,9501,10670,0,7850,0,0,0,0,0,8655,0,0,0,0,5826,0,7933,0,0,0,0,0,0,0,0,0,0,0,5816,0,0,0,0,0,0,0,0,0,7948,6197,0,0,0,0,0,0,0,0,0,9675,9595,0,0,0,0,0,0,6334,6625,0,0,0,0,0,0,0,0,0,0,0,0,0,0,0,8271,0,0,0,0,0,0,0,0,0,0,0,0,0,0,0,11994,0,5789,0,0,0,0,0,0,0,0,6705,0,0,0,0,0,6229,0,0,0,0,0
0,10126,0,0,0,0,0,0,0,0,0,0,0,0,0,0,0,0,0,0,0,0,0,7866,6811,8127,0,0,0,0,6615,0,0,0,0,0,0,7140,6546,7342,0,0,0,0,0,0,0,0,7247,0,0,0,0,0,0,0,0,9929,10912,0,7941,0,0,0,0,0,8767,0,0,0,0,5993,0,0,0,0,0,0,0,0,0,0,0,0,0,5940,0,0,0,0,0,0,0,0,0,8069,6281,0,0,0,0,0,0,0,0,0,9868,10085,0,0,0,0,0,0,6464,6709,0,0,0,0,0,0,0,0,0,0,0,0,0,0,0,8388,0,0,0,0,0,0,0,0,0,0,0,0,0,0,0,12222,0,5876,0,0,0,0,0,0,0,0,6876,0,0,0,0,0,6321,0,0,0,0,0
0,10258,0,0,0,0,0,0,0,0,0,0,0,0,0,0,0,0,0,0,0,0,0,0,6940,8248,0,0,0,0,6709,0,0,0,0,0,0,7279,6628,7424,0,0,0,0,0,0,0,0,7373,0,0,0,0,0,0,0,0,10131,11395,0,8080,0,0,0,0,0,8876,0,0,0,0,6102,0,0,0,0,0,0,0,0,0,0,0,0,0,6030,0,0,0,0,0,0,0,0,0,0,6435,0,0,0,0,0,0,0,0,0,10019,10384,0,0,0,0,0,0,6624,6867,0,0,0,0,0,0,0,0,0,0,0,0,0,0,0,8579,0,0,0,0,0,0,0,0,0,0,0,0,0,0,0,12457,0,5935,0,0,0,0,0,0,0,0,7016,0,0,0,0,0,6422,0,0,0,0,0
0,10325,0,0,0,0,0,0,0,0,0,0,0,0,0,0,0,0,0,0,0,0,0,0,7133,8372,0,0,0,0,6733,0,0,0,0,0,0,7342,6773,7480,0,0,0,0,0,0,0,0,7581,0,0,0,0,0,0,0,0,10335,11487,0,8217,0,0,0,0,0,9012,0,0,0,0,6182,0,0,0,0,0,0,0,0,0,0,0,0,0,6136,0,0,0,0,0,0,0,0,0,0,6557,0,0,0,0,0,0,0,0,0,0,10692,0,0,0,0,0,0,6685,6964,0,0,0,0,0,0,0,0,0,0,0,0,0,0,0,8740,0,0,0,0,0,0,0,0,0,0,0,0,0,0,0,12692,0,6034,0,0,0,0,0,0,0,0,7154,0,0,0,0,0,6507,0,0,0,0,0
0,10527,0,0,0,0,0,0,0,0,0,0,0,0,0,0,0,0,0,0,0,0,0,0,7268,0,0,0,0,0,6914,0,0,0,0,0,0,7454,6845,7552,0,0,0,0,0,0,0,0,7657,0,0,0,0,0,0,0,0,10545,11758,0,0,0,0,0,0,0,9198,0,0,0,0,6333,0,0,0,0,0,0,0,0,0,0,0,0,0,6242,0,0,0,0,0,0,0,0,0,0,6620,0,0,0,0,0,0,0,0,0,0,11199,0,0,0,0,0,0,6815,7072,0,0,0,0,0,0,0,0,0,0,0,0,0,0,0,8867,0,0,0,0,0,0,0,0,0,0,0,0,0,0,0,13088,0,6162,0,0,0,0,0,0,0,0,7298,0,0,0,0,0,6599,0,0,0,0,0
0,10676,0,0,0,0,0,0,0,0,0,0,0,0,0,0,0,0,0,0,0,0,0,0,7400,0,0,0,0,0,6953,0,0,0,0,0,0,7627,6914,7710,0,0,0,0,0,0,0,0,0,0,0,0,0,0,0,0,0,10746,12028,0,0,0,0,0,0,0,9342,0,0,0,0,6441,0,0,0,0,0,0,0,0,0,0,0,0,0,6320,0,0,0,0,0,0,0,0,0,0,6718,0,0,0,0,0,0,0,0,0,0,11496,0,0,0,0,0,0,6985,7206,0,0,0,0,0,0,0,0,0,0,0,0,0,0,0,9095,0,0,0,0,0,0,0,0,0,0,0,0,0,0,0,13161,0,6255,0,0,0,0,0,0,0,0,7340,0,0,0,0,0,6695,0,0,0,0,0
0,10898,0,0,0,0,0,0,0,0,0,0,0,0,0,0,0,0,0,0,0,0,0,0,7565,0,0,0,0,0,7102,0,0,0,0,0,0,7744,7013,7945,0,0,0,0,0,0,0,0,0,0,0,0,0,0,0,0,0,10849,12300,0,0,0,0,0,0,0,9419,0,0,0,0,6527,0,0,0,0,0,0,0,0,0,0,0,0,0,6384,0,0,0,0,0,0,0,0,0,0,6906,0,0,0,0,0,0,0,0,0,0,11631,0,0,0,0,0,0,7104,7272,0,0,0,0,0,0,0,0,0,0,0,0,0,0,0,9226,0,0,0,0,0,0,0,0,0,0,0,0,0,0,0,13468,0,6342,0,0,0,0,0,0,0,0,7524,0,0,0,0,0,6884,0,0,0,0,0
0,11162,0,0,0,0,0,0,0,0,0,0,0,0,0,0,0,0,0,0,0,0,0,0,7692,0,0,0,0,0,7197,0,0,0,0,0,0,7873,7082,0,0,0,0,0,0,0,0,0,0,0,0,0,0,0,0,0,0,10912,12842,0,0,0,0,0,0,0,9641,0,0,0,0,6601,0,0,0,0,0,0,0,0,0,0,0,0,0,6526,0,0,0,0,0,0,0,0,0,0,6991,0,0,0,0,0,0,0,0,0,0,11716,0,0,0,0,0,0,7203,7459,0,0,0,0,0,0,0,0,0,0,0,0,0,0,0,9450,0,0,0,0,0,0,0,0,0,0,0,0,0,0,0,13628,0,6499,0,0,0,0,0,0,0,0,7646,0,0,0,0,0,6977,0,0,0,0,0
0,11248,0,0,0,0,0,0,0,0,0,0,0,0,0,0,0,0,0,0,0,0,0,0,7812,0,0,0,0,0,7374,0,0,0,0,0,0,0,7252,0,0,0,0,0,0,0,0,0,0,0,0,0,0,0,0,0,0,10994,13115,0,0,0,0,0,0,0,9698,0,0,0,0,6757,0,0,0,0,0,0,0,0,0,0,0,0,0,6622,0,0,0,0,0,0,0,0,0,0,7143,0,0,0,0,0,0,0,0,0,0,11930,0,0,0,0,0,0,7399,7627,0,0,0,0,0,0,0,0,0,0,0,0,0,0,0,9645,0,0,0,0,0,0,0,0,0,0,0,0,0,0,0,13859,0,6566,0,0,0,0,0,0,0,0,7741,0,0,0,0,0,7071,0,0,0,0,0
0,11372,0,0,0,0,0,0,0,0,0,0,0,0,0,0,0,0,0,0,0,0,0,0,7916,0,0,0,0,0,7469,0,0,0,0,0,0,0,7347,0,0,0,0,0,0,0,0,0,0,0,0,0,0,0,0,0,0,11159,13195,0,0,0,0,0,0,0,0,0,0,0,0,6976,0,0,0,0,0,0,0,0,0,0,0,0,0,6763,0,0,0,0,0,0,0,0,0,0,7271,0,0,0,0,0,0,0,0,0,0,12049,0,0,0,0,0,0,7423,7720,0,0,0,0,0,0,0,0,0,0,0,0,0,0,0,9806,0,0,0,0,0,0,0,0,0,0,0,0,0,0,0,14088,0,6766,0,0,0,0,0,0,0,0,7879,0,0,0,0,0,7167,0,0,0,0,0
0,11613,0,0,0,0,0,0,0,0,0,0,0,0,0,0,0,0,0,0,0,0,0,0,8035,0,0,0,0,0,7589,0,0,0,0,0,0,0,7545,0,0,0,0,0,0,0,0,0,0,0,0,0,0,0,0,0,0,11235,13391,0,0,0,0,0,0,0,0,0,0,0,0,7058,0,0,0,0,0,0,0,0,0,0,0,0,0,6799,0,0,0,0,0,0,0,0,0,0,7380,0,0,0,0,0,0,0,0,0,0,12324,0,0,0,0,0,0,7615,7983,0,0,0,0,0,0,0,0,0,0,0,0,0,0,0,9988,0,0,0,0,0,0,0,0,0,0,0,0,0,0,0,14318,0,6859,0,0,0,0,0,0,0,0,0,0,0,0,0,0,7270,0,0,0,0,0
0,11932,0,0,0,0,0,0,0,0,0,0,0,0,0,0,0,0,0,0,0,0,0,0,8257,0,0,0,0,0,7650,0,0,0,0,0,0,0,7636,0,0,0,0,0,0,0,0,0,0,0,0,0,0,0,0,0,0,11361,13665,0,0,0,0,0,0,0,0,0,0,0,0,7283,0,0,0,0,0,0,0,0,0,0,0,0,0,6963,0,0,0,0,0,0,0,0,0,0,7470,0,0,0,0,0,0,0,0,0,0,12581,0,0,0,0,0,0,7715,8133,0,0,0,0,0,0,0,0,0,0,0,0,0,0,0,10169,0,0,0,0,0,0,0,0,0,0,0,0,0,0,0,14495,0,6993,0,0,0,0,0,0,0,0,0,0,0,0,0,0,7356,0,0,0,0,0
0,12016,0,0,0,0,0,0,0,0,0,0,0,0,0,0,0,0,0,0,0,0,0,0,8399,0,0,0,0,0,7832,0,0,0,0,0,0,0,7706,0,0,0,0,0,0,0,0,0,0,0,0,0,0,0,0,0,0,11569,13937,0,0,0,0,0,0,0,0,0,0,0,0,7348,0,0,0,0,0,0,0,0,0,0,0,0,0,7053,0,0,0,0,0,0,0,0,0,0,7617,0,0,0,0,0,0,0,0,0,0,12858,0,0,0,0,0,0,7826,8258,0,0,0,0,0,0,0,0,0,0,0,0,0,0,0,10248,0,0,0,0,0,0,0,0,0,0,0,0,0,0,0,14785,0,7077,0,0,0,0,0,0,0,0,0,0,0,0,0,0,7450,0,0,0,0,0
0,12114,0,0,0,0,0,0,0,0,0,0,0,0,0,0,0,0,0,0,0,0,0,0,8497,0,0,0,0,0,8013,0,0,0,0,0,0,0,7781,0,0,0,0,0,0,0,0,0,0,0,0,0,0,0,0,0,0,11701,14211,0,0,0,0,0,0,0,0,0,0,0,0,7560,0,0,0,0,0,0,0,0,0,0,0,0,0,7126,0,0,0,0,0,0,0,0,0,0,7700,0,0,0,0,0,0,0,0,0,0,13216,0,0,0,0,0,0,7995,8377,0,0,0,0,0,0,0,0,0,0,0,0,0,0,0,10352,0,0,0,0,0,0,0,0,0,0,0,0,0,0,0,15020,0,7255,0,0,0,0,0,0,0,0,0,0,0,0,0,0,7528,0,0,0,0,0
0,12415,0,0,0,0,0,0,0,0,0,0,0,0,0,0,0,0,0,0,0,0,0,0,0,0,0,0,0,0,8128,0,0,0,0,0,0,0,7909,0,0,0,0,0,0,0,0,0,0,0,0,0,0,0,0,0,0,11857,14486,0,0,0,0,0,0,0,0,0,0,0,0,7727,0,0,0,0,0,0,0,0,0,0,0,0,0,7274,0,0,0,0,0,0,0,0,0,0,7854,0,0,0,0,0,0,0,0,0,0,13426,0,0,0,0,0,0,8085,8446,0,0,0,0,0,0,0,0,0,0,0,0,0,0,0,10529,0,0,0,0,0,0,0,0,0,0,0,0,0,0,0,15254,0,7384,0,0,0,0,0,0,0,0,0,0,0,0,0,0,7642,0,0,0,0,0
0,12486,0,0,0,0,0,0,0,0,0,0,0,0,0,0,0,0,0,0,0,0,0,0,0,0,0,0,0,0,0,0,0,0,0,0,0,0,8066,0,0,0,0,0,0,0,0,0,0,0,0,0,0,0,0,0,0,11962,14604,0,0,0,0,0,0,0,0,0,0,0,0,7859,0,0,0,0,0,0,0,0,0,0,0,0,0,7397,0,0,0,0,0,0,0,0,0,0,8026,0,0,0,0,0,0,0,0,0,0,13538,0,0,0,0,0,0,8256,8576,0,0,0,0,0,0,0,0,0,0,0,0,0,0,0,0,0,0,0,0,0,0,0,0,0,0,0,0,0,0,0,15489,0,7452,0,0,0,0,0,0,0,0,0,0,0,0,0,0,7736,0,0,0,0,0
0,12747,0,0,0,0,0,0,0,0,0,0,0,0,0,0,0,0,0,0,0,0,0,0,0,0,0,0,0,0,0,0,0,0,0,0,0,0,8167,0,0,0,0,0,0,0,0,0,0,0,0,0,0,0,0,0,0,12038,14761,0,0,0,0,0,0,0,0,0,0,0,0,8051,0,0,0,0,0,0,0,0,0,0,0,0,0,7534,0,0,0,0,0,0,0,0,0,0,0,0,0,0,0,0,0,0,0,0,0,13712,0,0,0,0,0,0,8380,8681,0,0,0,0,0,0,0,0,0,0,0,0,0,0,0,0,0,0,0,0,0,0,0,0,0,0,0,0,0,0,0,15719,0,7640,0,0,0,0,0,0,0,0,0,0,0,0,0,0,7829,0,0,0,0,0
0,12814,0,0,0,0,0,0,0,0,0,0,0,0,0,0,0,0,0,0,0,0,0,0,0,0,0,0,0,0,0,0,0,0,0,0,0,0,8236,0,0,0,0,0,0,0,0,0,0,0,0,0,0,0,0,0,0,12178,15069,0,0,0,0,0,0,0,0,0,0,0,0,8165,0,0,0,0,0,0,0,0,0,0,0,0,0,7630,0,0,0,0,0,0,0,0,0,0,0,0,0,0,0,0,0,0,0,0,0,13782,0,0,0,0,0,0,0,8748,0,0,0,0,0,0,0,0,0,0,0,0,0,0,0,0,0,0,0,0,0,0,0,0,0,0,0,0,0,0,0,16019,0,7707,0,0,0,0,0,0,0,0,0,0,0,0,0,0,7926,0,0,0,0,0
0,13013,0,0,0,0,0,0,0,0,0,0,0,0,0,0,0,0,0,0,0,0,0,0,0,0,0,0,0,0,0,0,0,0,0,0,0,0,8357,0,0,0,0,0,0,0,0,0,0,0,0,0,0,0,0,0,0,12385,15235,0,0,0,0,0,0,0,0,0,0,0,0,8213,0,0,0,0,0,0,0,0,0,0,0,0,0,7662,0,0,0,0,0,0,0,0,0,0,0,0,0,0,0,0,0,0,0,0,0,13850,0,0,0,0,0,0,0,8845,0,0,0,0,0,0,0,0,0,0,0,0,0,0,0,0,0,0,0,0,0,0,0,0,0,0,0,0,0,0,0,16179,0,7820,0,0,0,0,0,0,0,0,0,0,0,0,0,0,8116,0,0,0,0,0
0,13113,0,0,0,0,0,0,0,0,0,0,0,0,0,0,0,0,0,0,0,0,0,0,0,0,0,0,0,0,0,0,0,0,0,0,0,0,0,0,0,0,0,0,0,0,0,0,0,0,0,0,0,0,0,0,0,12595,15312,0,0,0,0,0,0,0,0,0,0,0,0,8396,0,0,0,0,0,0,0,0,0,0,0,0,0,7903,0,0,0,0,0,0,0,0,0,0,0,0,0,0,0,0,0,0,0,0,0,14122,0,0,0,0,0,0,0,9005,0,0,0,0,0,0,0,0,0,0,0,0,0,0,0,0,0,0,0,0,0,0,0,0,0,0,0,0,0,0,0,16413,0,8023,0,0,0,0,0,0,0,0,0,0,0,0,0,0,8211,0,0,0,0,0
0,13207,0,0,0,0,0,0,0,0,0,0,0,0,0,0,0,0,0,0,0,0,0,0,0,0,0,0,0,0,0,0,0,0,0,0,0,0,0,0,0,0,0,0,0,0,0,0,0,0,0,0,0,0,0,0,0,12699,15589,0,0,0,0,0,0,0,0,0,0,0,0,8469,0,0,0,0,0,0,0,0,0,0,0,0,0,8098,0,0,0,0,0,0,0,0,0,0,0,0,0,0,0,0,0,0,0,0,0,14222,0,0,0,0,0,0,0,9094,0,0,0,0,0,0,0,0,0,0,0,0,0,0,0,0,0,0,0,0,0,0,0,0,0,0,0,0,0,0,0,16647,0,0,0,0,0,0,0,0,0,0,0,0,0,0,0,0,8308,0,0,0,0,0
0,13404,0,0,0,0,0,0,0,0,0,0,0,0,0,0,0,0,0,0,0,0,0,0,0,0,0,0,0,0,0,0,0,0,0,0,0,0,0,0,0,0,0,0,0,0,0,0,0,0,0,0,0,0,0,0,0,0,15865,0,0,0,0,0,0,0,0,0,0,0,0,8732,0,0,0,0,0,0,0,0,0,0,0,0,0,8225,0,0,0,0,0,0,0,0,0,0,0,0,0,0,0,0,0,0,0,0,0,14376,0,0,0,0,0,0,0,9251,0,0,0,0,0,0,0,0,0,0,0,0,0,0,0,0,0,0,0,0,0,0,0,0,0,0,0,0,0,0,0,16881,0,0,0,0,0,0,0,0,0,0,0,0,0,0,0,0,8406,0,0,0,0,0
0,13599,0,0,0,0,0,0,0,0,0,0,0,0,0,0,0,0,0,0,0,0,0,0,0,0,0,0,0,0,0,0,0,0,0,0,0,0,0,0,0,0,0,0,0,0,0,0,0,0,0,0,0,0,0,0,0,0,15986,0,0,0,0,0,0,0,0,0,0,0,0,8983,0,0,0,0,0,0,0,0,0,0,0,0,0,8352,0,0,0,0,0,0,0,0,0,0,0,0,0,0,0,0,0,0,0,0,0,14696,0,0,0,0,0,0,0,9345,0,0,0,0,0,0,0,0,0,0,0,0,0,0,0,0,0,0,0,0,0,0,0,0,0,0,0,0,0,0,0,0,0,0,0,0,0,0,0,0,0,0,0,0,0,0,0,0,8501,0,0,0,0,0
0,13815,0,0,0,0,0,0,0,0,0,0,0,0,0,0,0,0,0,0,0,0,0,0,0,0,0,0,0,0,0,0,0,0,0,0,0,0,0,0,0,0,0,0,0,0,0,0,0,0,0,0,0,0,0,0,0,0,16139,0,0,0,0,0,0,0,0,0,0,0,0,9153,0,0,0,0,0,0,0,0,0,0,0,0,0,8456,0,0,0,0,0,0,0,0,0,0,0,0,0,0,0,0,0,0,0,0,0,14945,0,0,0,0,0,0,0,9419,0,0,0,0,0,0,0,0,0,0,0,0,0,0,0,0,0,0,0,0,0,0,0,0,0,0,0,0,0,0,0,0,0,0,0,0,0,0,0,0,0,0,0,0,0,0,0,0,8596,0,0,0,0,0
0,14061,0,0,0,0,0,0,0,0,0,0,0,0,0,0,0,0,0,0,0,0,0,0,0,0,0,0,0,0,0,0,0,0,0,0,0,0,0,0,0,0,0,0,0,0,0,0,0,0,0,0,0,0,0,0,0,0,16303,0,0,0,0,0,0,0,0,0,0,0,0,9417,0,0,0,0,0,0,0,0,0,0,0,0,0,8568,0,0,0,0,0,0,0,0,0,0,0,0,0,0,0,0,0,0,0,0,0,15150,0,0,0,0,0,0,0,9498,0,0,0,0,0,0,0,0,0,0,0,0,0,0,0,0,0,0,0,0,0,0,0,0,0,0,0,0,0,0,0,0,0,0,0,0,0,0,0,0,0,0,0,0,0,0,0,0,8678,0,0,0,0,0
0,14302,0,0,0,0,0,0,0,0,0,0,0,0,0,0,0,0,0,0,0,0,0,0,0,0,0,0,0,0,0,0,0,0,0,0,0,0,0,0,0,0,0,0,0,0,0,0,0,0,0,0,0,0,0,0,0,0,16434,0,0,0,0,0,0,0,0,0,0,0,0,9574,0,0,0,0,0,0,0,0,0,0,0,0,0,8766,0,0,0,0,0,0,0,0,0,0,0,0,0,0,0,0,0,0,0,0,0,15437,0,0,0,0,0,0,0,9578,0,0,0,0,0,0,0,0,0,0,0,0,0,0,0,0,0,0,0,0,0,0,0,0,0,0,0,0,0,0,0,0,0,0,0,0,0,0,0,0,0,0,0,0,0,0,0,0,8789,0,0,0,0,0
0,14552,0,0,0,0,0,0,0,0,0,0,0,0,0,0,0,0,0,0,0,0,0,0,0,0,0,0,0,0,0,0,0,0,0,0,0,0,0,0,0,0,0,0,0,0,0,0,0,0,0,0,0,0,0,0,0,0,16551,0,0,0,0,0,0,0,0,0,0,0,0,9706,0,0,0,0,0,0,0,0,0,0,0,0,0,8944,0,0,0,0,0,0,0,0,0,0,0,0,0,0,0,0,0,0,0,0,0,15749,0,0,0,0,0,0,0,9748,0,0,0,0,0,0,0,0,0,0,0,0,0,0,0,0,0,0,0,0,0,0,0,0,0,0,0,0,0,0,0,0,0,0,0,0,0,0,0,0,0,0,0,0,0,0,0,0,8885,0,0,0,0,0
0,14838,0,0,0,0,0,0,0,0,0,0,0,0,0,0,0,0,0,0,0,0,0,0,0,0,0,0,0,0,0,0,0,0,0,0,0,0,0,0,0,0,0,0,0,0,0,0,0,0,0,0,0,0,0,0,0,0,16692,0,0,0,0,0,0,0,0,0,0,0,0,9783,0,0,0,0,0,0,0,0,0,0,0,0,0,9038,0,0,0,0,0,0,0,0,0,0,0,0,0,0,0,0,0,0,0,0,0,15916,0,0,0,0,0,0,0,9847,0,0,0,0,0,0,0,0,0,0,0,0,0,0,0,0,0,0,0,0,0,0,0,0,0,0,0,0,0,0,0,0,0,0,0,0,0,0,0,0,0,0,0,0,0,0,0,0,8978,0,0,0,0,0
0,14920,0,0,0,0,0,0,0,0,0,0,0,0,0,0,0,0,0,0,0,0,0,0,0,0,0,0,0,0,0,0,0,0,0,0,0,0,0,0,0,0,0,0,0,0,0,0,0,0,0,0,0,0,0,0,0,0,0,0,0,0,0,0,0,0,0,0,0,0,0,9838,0,0,0,0,0,0,0,0,0,0,0,0,0,9280,0,0,0,0,0,0,0,0,0,0,0,0,0,0,0,0,0,0,0,0,0,16379,0,0,0,0,0,0,0,10000,0,0,0,0,0,0,0,0,0,0,0,0,0,0,0,0,0,0,0,0,0,0,0,0,0,0,0,0,0,0,0,0,0,0,0,0,0,0,0,0,0,0,0,0,0,0,0,0,9074,0,0,0,0,0
0,15105,0,0,0,0,0,0,0,0,0,0,0,0,0,0,0,0,0,0,0,0,0,0,0,0,0,0,0,0,0,0,0,0,0,0,0,0,0,0,0,0,0,0,0,0,0,0,0,0,0,0,0,0,0,0,0,0,0,0,0,0,0,0,0,0,0,0,0,0,0,10157,0,0,0,0,0,0,0,0,0,0,0,0,0,9427,0,0,0,0,0,0,0,0,0,0,0,0,0,0,0,0,0,0,0,0,0,0,0,0,0,0,0,0,0,10270,0,0,0,0,0,0,0,0,0,0,0,0,0,0,0,0,0,0,0,0,0,0,0,0,0,0,0,0,0,0,0,0,0,0,0,0,0,0,0,0,0,0,0,0,0,0,0,0,9171,0,0,0,0,0
0,15373,0,0,0,0,0,0,0,0,0,0,0,0,0,0,0,0,0,0,0,0,0,0,0,0,0,0,0,0,0,0,0,0,0,0,0,0,0,0,0,0,0,0,0,0,0,0,0,0,0,0,0,0,0,0,0,0,0,0,0,0,0,0,0,0,0,0,0,0,0,10225,0,0,0,0,0,0,0,0,0,0,0,0,0,9502,0,0,0,0,0,0,0,0,0,0,0,0,0,0,0,0,0,0,0,0,0,0,0,0,0,0,0,0,0,0,0,0,0,0,0,0,0,0,0,0,0,0,0,0,0,0,0,0,0,0,0,0,0,0,0,0,0,0,0,0,0,0,0,0,0,0,0,0,0,0,0,0,0,0,0,0,0,0,9274,0,0,0,0,0
0,15645,0,0,0,0,0,0,0,0,0,0,0,0,0,0,0,0,0,0,0,0,0,0,0,0,0,0,0,0,0,0,0,0,0,0,0,0,0,0,0,0,0,0,0,0,0,0,0,0,0,0,0,0,0,0,0,0,0,0,0,0,0,0,0,0,0,0,0,0,0,10914,0,0,0,0,0,0,0,0,0,0,0,0,0,9589,0,0,0,0,0,0,0,0,0,0,0,0,0,0,0,0,0,0,0,0,0,0,0,0,0,0,0,0,0,0,0,0,0,0,0,0,0,0,0,0,0,0,0,0,0,0,0,0,0,0,0,0,0,0,0,0,0,0,0,0,0,0,0,0,0,0,0,0,0,0,0,0,0,0,0,0,0,0,9363,0,0,0,0,0
0,15750,0,0,0,0,0,0,0,0,0,0,0,0,0,0,0,0,0,0,0,0,0,0,0,0,0,0,0,0,0,0,0,0,0,0,0,0,0,0,0,0,0,0,0,0,0,0,0,0,0,0,0,0,0,0,0,0,0,0,0,0,0,0,0,0,0,0,0,0,0,11208,0,0,0,0,0,0,0,0,0,0,0,0,0,9658,0,0,0,0,0,0,0,0,0,0,0,0,0,0,0,0,0,0,0,0,0,0,0,0,0,0,0,0,0,0,0,0,0,0,0,0,0,0,0,0,0,0,0,0,0,0,0,0,0,0,0,0,0,0,0,0,0,0,0,0,0,0,0,0,0,0,0,0,0,0,0,0,0,0,0,0,0,0,9457,0,0,0,0,0
0,15897,0,0,0,0,0,0,0,0,0,0,0,0,0,0,0,0,0,0,0,0,0,0,0,0,0,0,0,0,0,0,0,0,0,0,0,0,0,0,0,0,0,0,0,0,0,0,0,0,0,0,0,0,0,0,0,0,0,0,0,0,0,0,0,0,0,0,0,0,0,11480,0,0,0,0,0,0,0,0,0,0,0,0,0,9749,0,0,0,0,0,0,0,0,0,0,0,0,0,0,0,0,0,0,0,0,0,0,0,0,0,0,0,0,0,0,0,0,0,0,0,0,0,0,0,0,0,0,0,0,0,0,0,0,0,0,0,0,0,0,0,0,0,0,0,0,0,0,0,0,0,0,0,0,0,0,0,0,0,0,0,0,0,0,9554,0,0,0,0,0
0,16147,0,0,0,0,0,0,0,0,0,0,0,0,0,0,0,0,0,0,0,0,0,0,0,0,0,0,0,0,0,0,0,0,0,0,0,0,0,0,0,0,0,0,0,0,0,0,0,0,0,0,0,0,0,0,0,0,0,0,0,0,0,0,0,0,0,0,0,0,0,11700,0,0,0,0,0,0,0,0,0,0,0,0,0,9765,0,0,0,0,0,0,0,0,0,0,0,0,0,0,0,0,0,0,0,0,0,0,0,0,0,0,0,0,0,0,0,0,0,0,0,0,0,0,0,0,0,0,0,0,0,0,0,0,0,0,0,0,0,0,0,0,0,0,0,0,0,0,0,0,0,0,0,0,0,0,0,0,0,0,0,0,0,0,9650,0,0,0,0,0
0,16405,0,0,0,0,0,0,0,0,0,0,0,0,0,0,0,0,0,0,0,0,0,0,0,0,0,0,0,0,0,0,0,0,0,0,0,0,0,0,0,0,0,0,0,0,0,0,0,0,0,0,0,0,0,0,0,0,0,0,0,0,0,0,0,0,0,0,0,0,0,11718,0,0,0,0,0,0,0,0,0,0,0,0,0,9880,0,0,0,0,0,0,0,0,0,0,0,0,0,0,0,0,0,0,0,0,0,0,0,0,0,0,0,0,0,0,0,0,0,0,0,0,0,0,0,0,0,0,0,0,0,0,0,0,0,0,0,0,0,0,0,0,0,0,0,0,0,0,0,0,0,0,0,0,0,0,0,0,0,0,0,0,0,0,9744,0,0,0,0,0
0,0,0,0,0,0,0,0,0,0,0,0,0,0,0,0,0,0,0,0,0,0,0,0,0,0,0,0,0,0,0,0,0,0,0,0,0,0,0,0,0,0,0,0,0,0,0,0,0,0,0,0,0,0,0,0,0,0,0,0,0,0,0,0,0,0,0,0,0,0,0,12045,0,0,0,0,0,0,0,0,0,0,0,0,0,10004,0,0,0,0,0,0,0,0,0,0,0,0,0,0,0,0,0,0,0,0,0,0,0,0,0,0,0,0,0,0,0,0,0,0,0,0,0,0,0,0,0,0,0,0,0,0,0,0,0,0,0,0,0,0,0,0,0,0,0,0,0,0,0,0,0,0,0,0,0,0,0,0,0,0,0,0,0,0,9838,0,0,0,0,0
0,0,0,0,0,0,0,0,0,0,0,0,0,0,0,0,0,0,0,0,0,0,0,0,0,0,0,0,0,0,0,0,0,0,0,0,0,0,0,0,0,0,0,0,0,0,0,0,0,0,0,0,0,0,0,0,0,0,0,0,0,0,0,0,0,0,0,0,0,0,0,12339,0,0,0,0,0,0,0,0,0,0,0,0,0,10110,0,0,0,0,0,0,0,0,0,0,0,0,0,0,0,0,0,0,0,0,0,0,0,0,0,0,0,0,0,0,0,0,0,0,0,0,0,0,0,0,0,0,0,0,0,0,0,0,0,0,0,0,0,0,0,0,0,0,0,0,0,0,0,0,0,0,0,0,0,0,0,0,0,0,0,0,0,0,9934,0,0,0,0,0
0,0,0,0,0,0,0,0,0,0,0,0,0,0,0,0,0,0,0,0,0,0,0,0,0,0,0,0,0,0,0,0,0,0,0,0,0,0,0,0,0,0,0,0,0,0,0,0,0,0,0,0,0,0,0,0,0,0,0,0,0,0,0,0,0,0,0,0,0,0,0,12654,0,0,0,0,0,0,0,0,0,0,0,0,0,10182,0,0,0,0,0,0,0,0,0,0,0,0,0,0,0,0,0,0,0,0,0,0,0,0,0,0,0,0,0,0,0,0,0,0,0,0,0,0,0,0,0,0,0,0,0,0,0,0,0,0,0,0,0,0,0,0,0,0,0,0,0,0,0,0,0,0,0,0,0,0,0,0,0,0,0,0,0,0,10123,0,0,0,0,0
0,0,0,0,0,0,0,0,0,0,0,0,0,0,0,0,0,0,0,0,0,0,0,0,0,0,0,0,0,0,0,0,0,0,0,0,0,0,0,0,0,0,0,0,0,0,0,0,0,0,0,0,0,0,0,0,0,0,0,0,0,0,0,0,0,0,0,0,0,0,0,12970,0,0,0,0,0,0,0,0,0,0,0,0,0,10296,0,0,0,0,0,0,0,0,0,0,0,0,0,0,0,0,0,0,0,0,0,0,0,0,0,0,0,0,0,0,0,0,0,0,0,0,0,0,0,0,0,0,0,0,0,0,0,0,0,0,0,0,0,0,0,0,0,0,0,0,0,0,0,0,0,0,0,0,0,0,0,0,0,0,0,0,0,0,0,0,0,0,0,0
0,0,0,0,0,0,0,0,0,0,0,0,0,0,0,0,0,0,0,0,0,0,0,0,0,0,0,0,0,0,0,0,0,0,0,0,0,0,0,0,0,0,0,0,0,0,0,0,0,0,0,0,0,0,0,0,0,0,0,0,0,0,0,0,0,0,0,0,0,0,0,13291,0,0,0,0,0,0,0,0,0,0,0,0,0,10461,0,0,0,0,0,0,0,0,0,0,0,0,0,0,0,0,0,0,0,0,0,0,0,0,0,0,0,0,0,0,0,0,0,0,0,0,0,0,0,0,0,0,0,0,0,0,0,0,0,0,0,0,0,0,0,0,0,0,0,0,0,0,0,0,0,0,0,0,0,0,0,0,0,0,0,0,0,0,0,0,0,0,0,0
0,0,0,0,0,0,0,0,0,0,0,0,0,0,0,0,0,0,0,0,0,0,0,0,0,0,0,0,0,0,0,0,0,0,0,0,0,0,0,0,0,0,0,0,0,0,0,0,0,0,0,0,0,0,0,0,0,0,0,0,0,0,0,0,0,0,0,0,0,0,0,13601,0,0,0,0,0,0,0,0,0,0,0,0,0,0,0,0,0,0,0,0,0,0,0,0,0,0,0,0,0,0,0,0,0,0,0,0,0,0,0,0,0,0,0,0,0,0,0,0,0,0,0,0,0,0,0,0,0,0,0,0,0,0,0,0,0,0,0,0,0,0,0,0,0,0,0,0,0,0,0,0,0,0,0,0,0,0,0,0,0,0,0,0,0,0,0,0,0,0
0,0,0,0,0,0,0,0,0,0,0,0,0,0,0,0,0,0,0,0,0,0,0,0,0,0,0,0,0,0,0,0,0,0,0,0,0,0,0,0,0,0,0,0,0,0,0,0,0,0,0,0,0,0,0,0,0,0,0,0,0,0,0,0,0,0,0,0,0,0,0,13912,0,0,0,0,0,0,0,0,0,0,0,0,0,0,0,0,0,0,0,0,0,0,0,0,0,0,0,0,0,0,0,0,0,0,0,0,0,0,0,0,0,0,0,0,0,0,0,0,0,0,0,0,0,0,0,0,0,0,0,0,0,0,0,0,0,0,0,0,0,0,0,0,0,0,0,0,0,0,0,0,0,0,0,0,0,0,0,0,0,0,0,0,0,0,0,0,0,0
0,0,0,0,0,0,0,0,0,0,0,0,0,0,0,0,0,0,0,0,0,0,0,0,0,0,0,0,0,0,0,0,0,0,0,0,0,0,0,0,0,0,0,0,0,0,0,0,0,0,0,0,0,0,0,0,0,0,0,0,0,0,0,0,0,0,0,0,0,0,0,14224,0,0,0,0,0,0,0,0,0,0,0,0,0,0,0,0,0,0,0,0,0,0,0,0,0,0,0,0,0,0,0,0,0,0,0,0,0,0,0,0,0,0,0,0,0,0,0,0,0,0,0,0,0,0,0,0,0,0,0,0,0,0,0,0,0,0,0,0,0,0,0,0,0,0,0,0,0,0,0,0,0,0,0,0,0,0,0,0,0,0,0,0,0,0,0,0,0,0
0,0,0,0,0,0,0,0,0,0,0,0,0,0,0,0,0,0,0,0,0,0,0,0,0,0,0,0,0,0,0,0,0,0,0,0,0,0,0,0,0,0,0,0,0,0,0,0,0,0,0,0,0,0,0,0,0,0,0,0,0,0,0,0,0,0,0,0,0,0,0,14527,0,0,0,0,0,0,0,0,0,0,0,0,0,0,0,0,0,0,0,0,0,0,0,0,0,0,0,0,0,0,0,0,0,0,0,0,0,0,0,0,0,0,0,0,0,0,0,0,0,0,0,0,0,0,0,0,0,0,0,0,0,0,0,0,0,0,0,0,0,0,0,0,0,0,0,0,0,0,0,0,0,0,0,0,0,0,0,0,0,0,0,0,0,0,0,0,0,0
0,0,0,0,0,0,0,0,0,0,0,0,0,0,0,0,0,0,0,0,0,0,0,0,0,0,0,0,0,0,0,0,0,0,0,0,0,0,0,0,0,0,0,0,0,0,0,0,0,0,0,0,0,0,0,0,0,0,0,0,0,0,0,0,0,0,0,0,0,0,0,14832,0,0,0,0,0,0,0,0,0,0,0,0,0,0,0,0,0,0,0,0,0,0,0,0,0,0,0,0,0,0,0,0,0,0,0,0,0,0,0,0,0,0,0,0,0,0,0,0,0,0,0,0,0,0,0,0,0,0,0,0,0,0,0,0,0,0,0,0,0,0,0,0,0,0,0,0,0,0,0,0,0,0,0,0,0,0,0,0,0,0,0,0,0,0,0,0,0,0
0,0,0,0,0,0,0,0,0,0,0,0,0,0,0,0,0,0,0,0,0,0,0,0,0,0,0,0,0,0,0,0,0,0,0,0,0,0,0,0,0,0,0,0,0,0,0,0,0,0,0,0,0,0,0,0,0,0,0,0,0,0,0,0,0,0,0,0,0,0,0,15144,0,0,0,0,0,0,0,0,0,0,0,0,0,0,0,0,0,0,0,0,0,0,0,0,0,0,0,0,0,0,0,0,0,0,0,0,0,0,0,0,0,0,0,0,0,0,0,0,0,0,0,0,0,0,0,0,0,0,0,0,0,0,0,0,0,0,0,0,0,0,0,0,0,0,0,0,0,0,0,0,0,0,0,0,0,0,0,0,0,0,0,0,0,0,0,0,0,0
0,0,0,0,0,0,0,0,0,0,0,0,0,0,0,0,0,0,0,0,0,0,0,0,0,0,0,0,0,0,0,0,0,0,0,0,0,0,0,0,0,0,0,0,0,0,0,0,0,0,0,0,0,0,0,0,0,0,0,0,0,0,0,0,0,0,0,0,0,0,0,15452,0,0,0,0,0,0,0,0,0,0,0,0,0,0,0,0,0,0,0,0,0,0,0,0,0,0,0,0,0,0,0,0,0,0,0,0,0,0,0,0,0,0,0,0,0,0,0,0,0,0,0,0,0,0,0,0,0,0,0,0,0,0,0,0,0,0,0,0,0,0,0,0,0,0,0,0,0,0,0,0,0,0,0,0,0,0,0,0,0,0,0,0,0,0,0,0,0,0
0,0,0,0,0,0,0,0,0,0,0,0,0,0,0,0,0,0,0,0,0,0,0,0,0,0,0,0,0,0,0,0,0,0,0,0,0,0,0,0,0,0,0,0,0,0,0,0,0,0,0,0,0,0,0,0,0,0,0,0,0,0,0,0,0,0,0,0,0,0,0,15765,0,0,0,0,0,0,0,0,0,0,0,0,0,0,0,0,0,0,0,0,0,0,0,0,0,0,0,0,0,0,0,0,0,0,0,0,0,0,0,0,0,0,0,0,0,0,0,0,0,0,0,0,0,0,0,0,0,0,0,0,0,0,0,0,0,0,0,0,0,0,0,0,0,0,0,0,0,0,0,0,0,0,0,0,0,0,0,0,0,0,0,0,0,0,0,0,0,0
0,0,0,0,0,0,0,0,0,0,0,0,0,0,0,0,0,0,0,0,0,0,0,0,0,0,0,0,0,0,0,0,0,0,0,0,0,0,0,0,0,0,0,0,0,0,0,0,0,0,0,0,0,0,0,0,0,0,0,0,0,0,0,0,0,0,0,0,0,0,0,16075,0,0,0,0,0,0,0,0,0,0,0,0,0,0,0,0,0,0,0,0,0,0,0,0,0,0,0,0,0,0,0,0,0,0,0,0,0,0,0,0,0,0,0,0,0,0,0,0,0,0,0,0,0,0,0,0,0,0,0,0,0,0,0,0,0,0,0,0,0,0,0,0,0,0,0,0,0,0,0,0,0,0,0,0,0,0,0,0,0,0,0,0,0,0,0,0,0,0
0,0,0,0,0,0,0,0,0,0,0,0,0,0,0,0,0,0,0,0,0,0,0,0,0,0,0,0,0,0,0,0,0,0,0,0,0,0,0,0,0,0,0,0,0,0,0,0,0,0,0,0,0,0,0,0,0,0,0,0,0,0,0,0,0,0,0,0,0,0,0,16404,0,0,0,0,0,0,0,0,0,0,0,0,0,0,0,0,0,0,0,0,0,0,0,0,0,0,0,0,0,0,0,0,0,0,0,0,0,0,0,0,0,0,0,0,0,0,0,0,0,0,0,0,0,0,0,0,0,0,0,0,0,0,0,0,0,0,0,0,0,0,0,0,0,0,0,0,0,0,0,0,0,0,0,0,0,0,0,0,0,0,0,0,0,0,0,0,0,0
0,0,0,0,0,0,0,0,0,0,0,0,0,0,0,0,0,0,0,0,0,0,0,0,0,0,0,0,0,0,0,0,0,0,0,0,0,0,0,0,0,0,0,0,0,0,0,0,0,0,0,0,0,0,0,0,0,0,0,0,0,0,0,0,0,0,0,0,0,0,0,0,0,0,0,0,0,0,0,0,0,0,0,0,0,0,0,0,0,0,0,0,0,0,0,0,0,0,0,0,0,0,0,0,0,0,0,0,0,0,0,0,0,0,0,0,0,0,0,0,0,0,0,0,0,0,0,0,0,0,0,0,0,0,0,0,0,0,0,0,0,0,0,0,0,0,0,0,0,0,0,0,0,0,0,0,0,0,0,0,0,0,0,0,0,0,0,0,0,0
0,0,0,0,0,0,0,0,0,0,0,0,0,0,0,0,0,0,0,0,0,0,0,0,0,0,0,0,0,0,0,0,0,0,0,0,0,0,0,0,0,0,0,0,0,0,0,0,0,0,0,0,0,0,0,0,0,0,0,0,0,0,0,0,0,0,0,0,0,0,0,0,0,0,0,0,0,0,0,0,0,0,0,0,0,0,0,0,0,0,0,0,0,0,0,0,0,0,0,0,0,0,0,0,0,0,0,0,0,0,0,0,0,0,0,0,0,0,0,0,0,0,0,0,0,0,0,0,0,0,0,0,0,0,0,0,0,0,0,0,0,0,0,0,0,0,0,0,0,0,0,0,0,0,0,0,0,0,0,0,0,0,0,0,0,0,0,0,0,0
0,0,0,0,0,0,0,0,0,0,0,0,0,0,0,0,0,0,0,0,0,0,0,0,0,0,0,0,0,0,0,0,0,0,0,0,0,0,0,0,0,0,0,0,0,0,0,0,0,0,0,0,0,0,0,0,0,0,0,0,0,0,0,0,0,0,0,0,0,0,0,0,0,0,0,0,0,0,0,0,0,0,0,0,0,0,0,0,0,0,0,0,0,0,0,0,0,0,0,0,0,0,0,0,0,0,0,0,0,0,0,0,0,0,0,0,0,0,0,0,0,0,0,0,0,0,0,0,0,0,0,0,0,0,0,0,0,0,0,0,0,0,0,0,0,0,0,0,0,0,0,0,0,0,0,0,0,0,0,0,0,0,0,0,0,0,0,0,0,0
0,0,0,0,0,0,0,0,0,0,0,0,0,0,0,0,0,0,0,0,0,0,0,0,0,0,0,0,0,0,0,0,0,0,0,0,0,0,0,0,0,0,0,0,0,0,0,0,0,0,0,0,0,0,0,0,0,0,0,0,0,0,0,0,0,0,0,0,0,0,0,0,0,0,0,0,0,0,0,0,0,0,0,0,0,0,0,0,0,0,0,0,0,0,0,0,0,0,0,0,0,0,0,0,0,0,0,0,0,0,0,0,0,0,0,0,0,0,0,0,0,0,0,0,0,0,0,0,0,0,0,0,0,0,0,0,0,0,0,0,0,0,0,0,0,0,0,0,0,0,0,0,0,0,0,0,0,0,0,0,0,0,0,0,0,0,0,0,0,0
0,0,0,0,0,0,0,0,0,0,0,0,0,0,0,0,0,0,0,0,0,0,0,0,0,0,0,0,0,0,0,0,0,0,0,0,0,0,0,0,0,0,0,0,0,0,0,0,0,0,0,0,0,0,0,0,0,0,0,0,0,0,0,0,0,0,0,0,0,0,0,0,0,0,0,0,0,0,0,0,0,0,0,0,0,0,0,0,0,0,0,0,0,0,0,0,0,0,0,0,0,0,0,0,0,0,0,0,0,0,0,0,0,0,0,0,0,0,0,0,0,0,0,0,0,0,0,0,0,0,0,0,0,0,0,0,0,0,0,0,0,0,0,0,0,0,0,0,0,0,0,0,0,0,0,0,0,0,0,0,0,0,0,0,0,0,0,0,0,0
0,0,0,0,0,0,0,0,0,0,0,0,0,0,0,0,0,0,0,0,0,0,0,0,0,0,0,0,0,0,0,0,0,0,0,0,0,0,0,0,0,0,0,0,0,0,0,0,0,0,0,0,0,0,0,0,0,0,0,0,0,0,0,0,0,0,0,0,0,0,0,0,0,0,0,0,0,0,0,0,0,0,0,0,0,0,0,0,0,0,0,0,0,0,0,0,0,0,0,0,0,0,0,0,0,0,0,0,0,0,0,0,0,0,0,0,0,0,0,0,0,0,0,0,0,0,0,0,0,0,0,0,0,0,0,0,0,0,0,0,0,0,0,0,0,0,0,0,0,0,0,0,0,0,0,0,0,0,0,0,0,0,0,0,0,0,0,0,0,0
0,0,0,0,0,0,0,0,0,0,0,0,0,0,0,0,0,0,0,0,0,0,0,0,0,0,0,0,0,0,0,0,0,0,0,0,0,0,0,0,0,0,0,0,0,0,0,0,0,0,0,0,0,0,0,0,0,0,0,0,0,0,0,0,0,0,0,0,0,0,0,0,0,0,0,0,0,0,0,0,0,0,0,0,0,0,0,0,0,0,0,0,0,0,0,0,0,0,0,0,0,0,0,0,0,0,0,0,0,0,0,0,0,0,0,0,0,0,0,0,0,0,0,0,0,0,0,0,0,0,0,0,0,0,0,0,0,0,0,0,0,0,0,0,0,0,0,0,0,0,0,0,0,0,0,0,0,0,0,0,0,0,0,0,0,0,0,0,0,0
0,0,0,0,0,0,0,0,0,0,0,0,0,0,0,0,0,0,0,0,0,0,0,0,0,0,0,0,0,0,0,0,0,0,0,0,0,0,0,0,0,0,0,0,0,0,0,0,0,0,0,0,0,0,0,0,0,0,0,0,0,0,0,0,0,0,0,0,0,0,0,0,0,0,0,0,0,0,0,0,0,0,0,0,0,0,0,0,0,0,0,0,0,0,0,0,0,0,0,0,0,0,0,0,0,0,0,0,0,0,0,0,0,0,0,0,0,0,0,0,0,0,0,0,0,0,0,0,0,0,0,0,0,0,0,0,0,0,0,0,0,0,0,0,0,0,0,0,0,0,0,0,0,0,0,0,0,0,0,0,0,0,0,0,0,0,0,0,0,0
0,0,0,0,0,0,0,0,0,0,0,0,0,0,0,0,0,0,0,0,0,0,0,0,0,0,0,0,0,0,0,0,0,0,0,0,0,0,0,0,0,0,0,0,0,0,0,0,0,0,0,0,0,0,0,0,0,0,0,0,0,0,0,0,0,0,0,0,0,0,0,0,0,0,0,0,0,0,0,0,0,0,0,0,0,0,0,0,0,0,0,0,0,0,0,0,0,0,0,0,0,0,0,0,0,0,0,0,0,0,0,0,0,0,0,0,0,0,0,0,0,0,0,0,0,0,0,0,0,0,0,0,0,0,0,0,0,0,0,0,0,0,0,0,0,0,0,0,0,0,0,0,0,0,0,0,0,0,0,0,0,0,0,0,0,0,0,0,0,0
0,0,0,0,0,0,0,0,0,0,0,0,0,0,0,0,0,0,0,0,0,0,0,0,0,0,0,0,0,0,0,0,0,0,0,0,0,0,0,0,0,0,0,0,0,0,0,0,0,0,0,0,0,0,0,0,0,0,0,0,0,0,0,0,0,0,0,0,0,0,0,0,0,0,0,0,0,0,0,0,0,0,0,0,0,0,0,0,0,0,0,0,0,0,0,0,0,0,0,0,0,0,0,0,0,0,0,0,0,0,0,0,0,0,0,0,0,0,0,0,0,0,0,0,0,0,0,0,0,0,0,0,0,0,0,0,0,0,0,0,0,0,0,0,0,0,0,0,0,0,0,0,0,0,0,0,0,0,0,0,0,0,0,0,0,0,0,0,0,0
0,0,0,0,0,0,0,0,0,0,0,0,0,0,0,0,0,0,0,0,0,0,0,0,0,0,0,0,0,0,0,0,0,0,0,0,0,0,0,0,0,0,0,0,0,0,0,0,0,0,0,0,0,0,0,0,0,0,0,0,0,0,0,0,0,0,0,0,0,0,0,0,0,0,0,0,0,0,0,0,0,0,0,0,0,0,0,0,0,0,0,0,0,0,0,0,0,0,0,0,0,0,0,0,0,0,0,0,0,0,0,0,0,0,0,0,0,0,0,0,0,0,0,0,0,0,0,0,0,0,0,0,0,0,0,0,0,0,0,0,0,0,0,0,0,0,0,0,0,0,0,0,0,0,0,0,0,0,0,0,0,0,0,0,0,0,0,0,0,0
0,0,0,0,0,0,0,0,0,0,0,0,0,0,0,0,0,0,0,0,0,0,0,0,0,0,0,0,0,0,0,0,0,0,0,0,0,0,0,0,0,0,0,0,0,0,0,0,0,0,0,0,0,0,0,0,0,0,0,0,0,0,0,0,0,0,0,0,0,0,0,0,0,0,0,0,0,0,0,0,0,0,0,0,0,0,0,0,0,0,0,0,0,0,0,0,0,0,0,0,0,0,0,0,0,0,0,0,0,0,0,0,0,0,0,0,0,0,0,0,0,0,0,0,0,0,0,0,0,0,0,0,0,0,0,0,0,0,0,0,0,0,0,0,0,0,0,0,0,0,0,0,0,0,0,0,0,0,0,0,0,0,0,0,0,0,0,0,0,0
0,0,0,0,0,0,0,0,0,0,0,0,0,0,0,0,0,0,0,0,0,0,0,0,0,0,0,0,0,0,0,0,0,0,0,0,0,0,0,0,0,0,0,0,0,0,0,0,0,0,0,0,0,0,0,0,0,0,0,0,0,0,0,0,0,0,0,0,0,0,0,0,0,0,0,0,0,0,0,0,0,0,0,0,0,0,0,0,0,0,0,0,0,0,0,0,0,0,0,0,0,0,0,0,0,0,0,0,0,0,0,0,0,0,0,0,0,0,0,0,0,0,0,0,0,0,0,0,0,0,0,0,0,0,0,0,0,0,0,0,0,0,0,0,0,0,0,0,0,0,0,0,0,0,0,0,0,0,0,0,0,0,0,0,0,0,0,0,0,0
0,0,0,0,0,0,0,0,0,0,0,0,0,0,0,0,0,0,0,0,0,0,0,0,0,0,0,0,0,0,0,0,0,0,0,0,0,0,0,0,0,0,0,0,0,0,0,0,0,0,0,0,0,0,0,0,0,0,0,0,0,0,0,0,0,0,0,0,0,0,0,0,0,0,0,0,0,0,0,0,0,0,0,0,0,0,0,0,0,0,0,0,0,0,0,0,0,0,0,0,0,0,0,0,0,0,0,0,0,0,0,0,0,0,0,0,0,0,0,0,0,0,0,0,0,0,0,0,0,0,0,0,0,0,0,0,0,0,0,0,0,0,0,0,0,0,0,0,0,0,0,0,0,0,0,0,0,0,0,0,0,0,0,0,0,0,0,0,0,0
0,0,0,0,0,0,0,0,0,0,0,0,0,0,0,0,0,0,0,0,0,0,0,0,0,0,0,0,0,0,0,0,0,0,0,0,0,0,0,0,0,0,0,0,0,0,0,0,0,0,0,0,0,0,0,0,0,0,0,0,0,0,0,0,0,0,0,0,0,0,0,0,0,0,0,0,0,0,0,0,0,0,0,0,0,0,0,0,0,0,0,0,0,0,0,0,0,0,0,0,0,0,0,0,0,0,0,0,0,0,0,0,0,0,0,0,0,0,0,0,0,0,0,0,0,0,0,0,0,0,0,0,0,0,0,0,0,0,0,0,0,0,0,0,0,0,0,0,0,0,0,0,0,0,0,0,0,0,0,0,0,0,0,0,0,0,0,0,0,0
0,0,0,0,0,0,0,0,0,0,0,0,0,0,0,0,0,0,0,0,0,0,0,0,0,0,0,0,0,0,0,0,0,0,0,0,0,0,0,0,0,0,0,0,0,0,0,0,0,0,0,0,0,0,0,0,0,0,0,0,0,0,0,0,0,0,0,0,0,0,0,0,0,0,0,0,0,0,0,0,0,0,0,0,0,0,0,0,0,0,0,0,0,0,0,0,0,0,0,0,0,0,0,0,0,0,0,0,0,0,0,0,0,0,0,0,0,0,0,0,0,0,0,0,0,0,0,0,0,0,0,0,0,0,0,0,0,0,0,0,0,0,0,0,0,0,0,0,0,0,0,0,0,0,0,0,0,0,0,0,0,0,0,0,0,0,0,0,0,0
0,0,0,0,0,0,0,0,0,0,0,0,0,0,0,0,0,0,0,0,0,0,0,0,0,0,0,0,0,0,0,0,0,0,0,0,0,0,0,0,0,0,0,0,0,0,0,0,0,0,0,0,0,0,0,0,0,0,0,0,0,0,0,0,0,0,0,0,0,0,0,0,0,0,0,0,0,0,0,0,0,0,0,0,0,0,0,0,0,0,0,0,0,0,0,0,0,0,0,0,0,0,0,0,0,0,0,0,0,0,0,0,0,0,0,0,0,0,0,0,0,0,0,0,0,0,0,0,0,0,0,0,0,0,0,0,0,0,0,0,0,0,0,0,0,0,0,0,0,0,0,0,0,0,0,0,0,0,0,0,0,0,0,0,0,0,0,0,0,0
0,0,0,0,0,0,0,0,0,0,0,0,0,0,0,0,0,0,0,0,0,0,0,0,0,0,0,0,0,0,0,0,0,0,0,0,0,0,0,0,0,0,0,0,0,0,0,0,0,0,0,0,0,0,0,0,0,0,0,0,0,0,0,0,0,0,0,0,0,0,0,0,0,0,0,0,0,0,0,0,0,0,0,0,0,0,0,0,0,0,0,0,0,0,0,0,0,0,0,0,0,0,0,0,0,0,0,0,0,0,0,0,0,0,0,0,0,0,0,0,0,0,0,0,0,0,0,0,0,0,0,0,0,0,0,0,0,0,0,0,0,0,0,0,0,0,0,0,0,0,0,0,0,0,0,0,0,0,0,0,0,0,0,0,0,0,0,0,0,0
0,0,0,0,0,0,0,0,0,0,0,0,0,0,0,0,0,0,0,0,0,0,0,0,0,0,0,0,0,0,0,0,0,0,0,0,0,0,0,0,0,0,0,0,0,0,0,0,0,0,0,0,0,0,0,0,0,0,0,0,0,0,0,0,0,0,0,0,0,0,0,0,0,0,0,0,0,0,0,0,0,0,0,0,0,0,0,0,0,0,0,0,0,0,0,0,0,0,0,0,0,0,0,0,0,0,0,0,0,0,0,0,0,0,0,0,0,0,0,0,0,0,0,0,0,0,0,0,0,0,0,0,0,0,0,0,0,0,0,0,0,0,0,0,0,0,0,0,0,0,0,0,0,0,0,0,0,0,0,0,0,0,0,0,0,0,0,0,0,0
0,0,0,0,0,0,0,0,0,0,0,0,0,0,0,0,0,0,0,0,0,0,0,0,0,0,0,0,0,0,0,0,0,0,0,0,0,0,0,0,0,0,0,0,0,0,0,0,0,0,0,0,0,0,0,0,0,0,0,0,0,0,0,0,0,0,0,0,0,0,0,0,0,0,0,0,0,0,0,0,0,0,0,0,0,0,0,0,0,0,0,0,0,0,0,0,0,0,0,0,0,0,0,0,0,0,0,0,0,0,0,0,0,0,0,0,0,0,0,0,0,0,0,0,0,0,0,0,0,0,0,0,0,0,0,0,0,0,0,0,0,0,0,0,0,0,0,0,0,0,0,0,0,0,0,0,0,0,0,0,0,0,0,0,0,0,0,0,0,0
0,0,0,0,0,0,0,0,0,0,0,0,0,0,0,0,0,0,0,0,0,0,0,0,0,0,0,0,0,0,0,0,0,0,0,0,0,0,0,0,0,0,0,0,0,0,0,0,0,0,0,0,0,0,0,0,0,0,0,0,0,0,0,0,0,0,0,0,0,0,0,0,0,0,0,0,0,0,0,0,0,0,0,0,0,0,0,0,0,0,0,0,0,0,0,0,0,0,0,0,0,0,0,0,0,0,0,0,0,0,0,0,0,0,0,0,0,0,0,0,0,0,0,0,0,0,0,0,0,0,0,0,0,0,0,0,0,0,0,0,0,0,0,0,0,0,0,0,0,0,0,0,0,0,0,0,0,0,0,0,0,0,0,0,0,0,0,0,0,0
0,0,0,0,0,0,0,0,0,0,0,0,0,0,0,0,0,0,0,0,0,0,0,0,0,0,0,0,0,0,0,0,0,0,0,0,0,0,0,0,0,0,0,0,0,0,0,0,0,0,0,0,0,0,0,0,0,0,0,0,0,0,0,0,0,0,0,0,0,0,0,0,0,0,0,0,0,0,0,0,0,0,0,0,0,0,0,0,0,0,0,0,0,0,0,0,0,0,0,0,0,0,0,0,0,0,0,0,0,0,0,0,0,0,0,0,0,0,0,0,0,0,0,0,0,0,0,0,0,0,0,0,0,0,0,0,0,0,0,0,0,0,0,0,0,0,0,0,0,0,0,0,0,0,0,0,0,0,0,0,0,0,0,0,0,0,0,0,0,0
0,0,0,0,0,0,0,0,0,0,0,0,0,0,0,0,0,0,0,0,0,0,0,0,0,0,0,0,0,0,0,0,0,0,0,0,0,0,0,0,0,0,0,0,0,0,0,0,0,0,0,0,0,0,0,0,0,0,0,0,0,0,0,0,0,0,0,0,0,0,0,0,0,0,0,0,0,0,0,0,0,0,0,0,0,0,0,0,0,0,0,0,0,0,0,0,0,0,0,0,0,0,0,0,0,0,0,0,0,0,0,0,0,0,0,0,0,0,0,0,0,0,0,0,0,0,0,0,0,0,0,0,0,0,0,0,0,0,0,0,0,0,0,0,0,0,0,0,0,0,0,0,0,0,0,0,0,0,0,0,0,0,0,0,0,0,0,0,0,0
0,0,0,0,0,0,0,0,0,0,0,0,0,0,0,0,0,0,0,0,0,0,0,0,0,0,0,0,0,0,0,0,0,0,0,0,0,0,0,0,0,0,0,0,0,0,0,0,0,0,0,0,0,0,0,0,0,0,0,0,0,0,0,0,0,0,0,0,0,0,0,0,0,0,0,0,0,0,0,0,0,0,0,0,0,0,0,0,0,0,0,0,0,0,0,0,0,0,0,0,0,0,0,0,0,0,0,0,0,0,0,0,0,0,0,0,0,0,0,0,0,0,0,0,0,0,0,0,0,0,0,0,0,0,0,0,0,0,0,0,0,0,0,0,0,0,0,0,0,0,0,0,0,0,0,0,0,0,0,0,0,0,0,0,0,0,0,0,0,0
0,0,0,0,0,0,0,0,0,0,0,0,0,0,0,0,0,0,0,0,0,0,0,0,0,0,0,0,0,0,0,0,0,0,0,0,0,0,0,0,0,0,0,0,0,0,0,0,0,0,0,0,0,0,0,0,0,0,0,0,0,0,0,0,0,0,0,0,0,0,0,0,0,0,0,0,0,0,0,0,0,0,0,0,0,0,0,0,0,0,0,0,0,0,0,0,0,0,0,0,0,0,0,0,0,0,0,0,0,0,0,0,0,0,0,0,0,0,0,0,0,0,0,0,0,0,0,0,0,0,0,0,0,0,0,0,0,0,0,0,0,0,0,0,0,0,0,0,0,0,0,0,0,0,0,0,0,0,0,0,0,0,0,0,0,0,0,0,0,0
0,0,0,0,0,0,0,0,0,0,0,0,0,0,0,0,0,0,0,0,0,0,0,0,0,0,0,0,0,0,0,0,0,0,0,0,0,0,0,0,0,0,0,0,0,0,0,0,0,0,0,0,0,0,0,0,0,0,0,0,0,0,0,0,0,0,0,0,0,0,0,0,0,0,0,0,0,0,0,0,0,0,0,0,0,0,0,0,0,0,0,0,0,0,0,0,0,0,0,0,0,0,0,0,0,0,0,0,0,0,0,0,0,0,0,0,0,0,0,0,0,0,0,0,0,0,0,0,0,0,0,0,0,0,0,0,0,0,0,0,0,0,0,0,0,0,0,0,0,0,0,0,0,0,0,0,0,0,0,0,0,0,0,0,0,0,0,0,0,0
0,0,0,0,0,0,0,0,0,0,0,0,0,0,0,0,0,0,0,0,0,0,0,0,0,0,0,0,0,0,0,0,0,0,0,0,0,0,0,0,0,0,0,0,0,0,0,0,0,0,0,0,0,0,0,0,0,0,0,0,0,0,0,0,0,0,0,0,0,0,0,0,0,0,0,0,0,0,0,0,0,0,0,0,0,0,0,0,0,0,0,0,0,0,0,0,0,0,0,0,0,0,0,0,0,0,0,0,0,0,0,0,0,0,0,0,0,0,0,0,0,0,0,0,0,0,0,0,0,0,0,0,0,0,0,0,0,0,0,0,0,0,0,0,0,0,0,0,0,0,0,0,0,0,0,0,0,0,0,0,0,0,0,0,0,0,0,0,0,0
0,0,0,0,0,0,0,0,0,0,0,0,0,0,0,0,0,0,0,0,0,0,0,0,0,0,0,0,0,0,0,0,0,0,0,0,0,0,0,0,0,0,0,0,0,0,0,0,0,0,0,0,0,0,0,0,0,0,0,0,0,0,0,0,0,0,0,0,0,0,0,0,0,0,0,0,0,0,0,0,0,0,0,0,0,0,0,0,0,0,0,0,0,0,0,0,0,0,0,0,0,0,0,0,0,0,0,0,0,0,0,0,0,0,0,0,0,0,0,0,0,0,0,0,0,0,0,0,0,0,0,0,0,0,0,0,0,0,0,0,0,0,0,0,0,0,0,0,0,0,0,0,0,0,0,0,0,0,0,0,0,0,0,0,0,0,0,0,0,0
0,0,0,0,0,0,0,0,0,0,0,0,0,0,0,0,0,0,0,0,0,0,0,0,0,0,0,0,0,0,0,0,0,0,0,0,0,0,0,0,0,0,0,0,0,0,0,0,0,0,0,0,0,0,0,0,0,0,0,0,0,0,0,0,0,0,0,0,0,0,0,0,0,0,0,0,0,0,0,0,0,0,0,0,0,0,0,0,0,0,0,0,0,0,0,0,0,0,0,0,0,0,0,0,0,0,0,0,0,0,0,0,0,0,0,0,0,0,0,0,0,0,0,0,0,0,0,0,0,0,0,0,0,0,0,0,0,0,0,0,0,0,0,0,0,0,0,0,0,0,0,0,0,0,0,0,0,0,0,0,0,0,0,0,0,0,0,0,0,0
0,0,0,0,0,0,0,0,0,0,0,0,0,0,0,0,0,0,0,0,0,0,0,0,0,0,0,0,0,0,0,0,0,0,0,0,0,0,0,0,0,0,0,0,0,0,0,0,0,0,0,0,0,0,0,0,0,0,0,0,0,0,0,0,0,0,0,0,0,0,0,0,0,0,0,0,0,0,0,0,0,0,0,0,0,0,0,0,0,0,0,0,0,0,0,0,0,0,0,0,0,0,0,0,0,0,0,0,0,0,0,0,0,0,0,0,0,0,0,0,0,0,0,0,0,0,0,0,0,0,0,0,0,0,0,0,0,0,0,0,0,0,0,0,0,0,0,0,0,0,0,0,0,0,0,0,0,0,0,0,0,0,0,0,0,0,0,0,0,0
0,0,0,0,0,0,0,0,0,0,0,0,0,0,0,0,0,0,0,0,0,0,0,0,0,0,0,0,0,0,0,0,0,0,0,0,0,0,0,0,0,0,0,0,0,0,0,0,0,0,0,0,0,0,0,0,0,0,0,0,0,0,0,0,0,0,0,0,0,0,0,0,0,0,0,0,0,0,0,0,0,0,0,0,0,0,0,0,0,0,0,0,0,0,0,0,0,0,0,0,0,0,0,0,0,0,0,0,0,0,0,0,0,0,0,0,0,0,0,0,0,0,0,0,0,0,0,0,0,0,0,0,0,0,0,0,0,0,0,0,0,0,0,0,0,0,0,0,0,0,0,0,0,0,0,0,0,0,0,0,0,0,0,0,0,0,0,0,0,0
0,0,0,0,0,0,0,0,0,0,0,0,0,0,0,0,0,0,0,0,0,0,0,0,0,0,0,0,0,0,0,0,0,0,0,0,0,0,0,0,0,0,0,0,0,0,0,0,0,0,0,0,0,0,0,0,0,0,0,0,0,0,0,0,0,0,0,0,0,0,0,0,0,0,0,0,0,0,0,0,0,0,0,0,0,0,0,0,0,0,0,0,0,0,0,0,0,0,0,0,0,0,0,0,0,0,0,0,0,0,0,0,0,0,0,0,0,0,0,0,0,0,0,0,0,0,0,0,0,0,0,0,0,0,0,0,0,0,0,0,0,0,0,0,0,0,0,0,0,0,0,0,0,0,0,0,0,0,0,0,0,0,0,0,0,0,0,0,0,0
0,0,0,0,0,0,0,0,0,0,0,0,0,0,0,0,0,0,0,0,0,0,0,0,0,0,0,0,0,0,0,0,0,0,0,0,0,0,0,0,0,0,0,0,0,0,0,0,0,0,0,0,0,0,0,0,0,0,0,0,0,0,0,0,0,0,0,0,0,0,0,0,0,0,0,0,0,0,0,0,0,0,0,0,0,0,0,0,0,0,0,0,0,0,0,0,0,0,0,0,0,0,0,0,0,0,0,0,0,0,0,0,0,0,0,0,0,0,0,0,0,0,0,0,0,0,0,0,0,0,0,0,0,0,0,0,0,0,0,0,0,0,0,0,0,0,0,0,0,0,0,0,0,0,0,0,0,0,0,0,0,0,0,0,0,0,0,0,0,0
0,0,0,0,0,0,0,0,0,0,0,0,0,0,0,0,0,0,0,0,0,0,0,0,0,0,0,0,0,0,0,0,0,0,0,0,0,0,0,0,0,0,0,0,0,0,0,0,0,0,0,0,0,0,0,0,0,0,0,0,0,0,0,0,0,0,0,0,0,0,0,0,0,0,0,0,0,0,0,0,0,0,0,0,0,0,0,0,0,0,0,0,0,0,0,0,0,0,0,0,0,0,0,0,0,0,0,0,0,0,0,0,0,0,0,0,0,0,0,0,0,0,0,0,0,0,0,0,0,0,0,0,0,0,0,0,0,0,0,0,0,0,0,0,0,0,0,0,0,0,0,0,0,0,0,0,0,0,0,0,0,0,0,0,0,0,0,0,0,0
0,0,0,0,0,0,0,0,0,0,0,0,0,0,0,0,0,0,0,0,0,0,0,0,0,0,0,0,0,0,0,0,0,0,0,0,0,0,0,0,0,0,0,0,0,0,0,0,0,0,0,0,0,0,0,0,0,0,0,0,0,0,0,0,0,0,0,0,0,0,0,0,0,0,0,0,0,0,0,0,0,0,0,0,0,0,0,0,0,0,0,0,0,0,0,0,0,0,0,0,0,0,0,0,0,0,0,0,0,0,0,0,0,0,0,0,0,0,0,0,0,0,0,0,0,0,0,0,0,0,0,0,0,0,0,0,0,0,0,0,0,0,0,0,0,0,0,0,0,0,0,0,0,0,0,0,0,0,0,0,0,0,0,0,0,0,0,0,0,0
0,0,0,0,0,0,0,0,0,0,0,0,0,0,0,0,0,0,0,0,0,0,0,0,0,0,0,0,0,0,0,0,0,0,0,0,0,0,0,0,0,0,0,0,0,0,0,0,0,0,0,0,0,0,0,0,0,0,0,0,0,0,0,0,0,0,0,0,0,0,0,0,0,0,0,0,0,0,0,0,0,0,0,0,0,0,0,0,0,0,0,0,0,0,0,0,0,0,0,0,0,0,0,0,0,0,0,0,0,0,0,0,0,0,0,0,0,0,0,0,0,0,0,0,0,0,0,0,0,0,0,0,0,0,0,0,0,0,0,0,0,0,0,0,0,0,0,0,0,0,0,0,0,0,0,0,0,0,0,0,0,0,0,0,0,0,0,0,0,0
0,0,0,0,0,0,0,0,0,0,0,0,0,0,0,0,0,0,0,0,0,0,0,0,0,0,0,0,0,0,0,0,0,0,0,0,0,0,0,0,0,0,0,0,0,0,0,0,0,0,0,0,0,0,0,0,0,0,0,0,0,0,0,0,0,0,0,0,0,0,0,0,0,0,0,0,0,0,0,0,0,0,0,0,0,0,0,0,0,0,0,0,0,0,0,0,0,0,0,0,0,0,0,0,0,0,0,0,0,0,0,0,0,0,0,0,0,0,0,0,0,0,0,0,0,0,0,0,0,0,0,0,0,0,0,0,0,0,0,0,0,0,0,0,0,0,0,0,0,0,0,0,0,0,0,0,0,0,0,0,0,0,0,0,0,0,0,0,0,0
0,0,0,0,0,0,0,0,0,0,0,0,0,0,0,0,0,0,0,0,0,0,0,0,0,0,0,0,0,0,0,0,0,0,0,0,0,0,0,0,0,0,0,0,0,0,0,0,0,0,0,0,0,0,0,0,0,0,0,0,0,0,0,0,0,0,0,0,0,0,0,0,0,0,0,0,0,0,0,0,0,0,0,0,0,0,0,0,0,0,0,0,0,0,0,0,0,0,0,0,0,0,0,0,0,0,0,0,0,0,0,0,0,0,0,0,0,0,0,0,0,0,0,0,0,0,0,0,0,0,0,0,0,0,0,0,0,0,0,0,0,0,0,0,0,0,0,0,0,0,0,0,0,0,0,0,0,0,0,0,0,0,0,0,0,0,0,0,0,0
0,0,0,0,0,0,0,0,0,0,0,0,0,0,0,0,0,0,0,0,0,0,0,0,0,0,0,0,0,0,0,0,0,0,0,0,0,0,0,0,0,0,0,0,0,0,0,0,0,0,0,0,0,0,0,0,0,0,0,0,0,0,0,0,0,0,0,0,0,0,0,0,0,0,0,0,0,0,0,0,0,0,0,0,0,0,0,0,0,0,0,0,0,0,0,0,0,0,0,0,0,0,0,0,0,0,0,0,0,0,0,0,0,0,0,0,0,0,0,0,0,0,0,0,0,0,0,0,0,0,0,0,0,0,0,0,0,0,0,0,0,0,0,0,0,0,0,0,0,0,0,0,0,0,0,0,0,0,0,0,0,0,0,0,0,0,0,0,0,0
0,0,0,0,0,0,0,0,0,0,0,0,0,0,0,0,0,0,0,0,0,0,0,0,0,0,0,0,0,0,0,0,0,0,0,0,0,0,0,0,0,0,0,0,0,0,0,0,0,0,0,0,0,0,0,0,0,0,0,0,0,0,0,0,0,0,0,0,0,0,0,0,0,0,0,0,0,0,0,0,0,0,0,0,0,0,0,0,0,0,0,0,0,0,0,0,0,0,0,0,0,0,0,0,0,0,0,0,0,0,0,0,0,0,0,0,0,0,0,0,0,0,0,0,0,0,0,0,0,0,0,0,0,0,0,0,0,0,0,0,0,0,0,0,0,0,0,0,0,0,0,0,0,0,0,0,0,0,0,0,0,0,0,0,0,0,0,0,0,0
0,0,0,0,0,0,0,0,0,0,0,0,0,0,0,0,0,0,0,0,0,0,0,0,0,0,0,0,0,0,0,0,0,0,0,0,0,0,0,0,0,0,0,0,0,0,0,0,0,0,0,0,0,0,0,0,0,0,0,0,0,0,0,0,0,0,0,0,0,0,0,0,0,0,0,0,0,0,0,0,0,0,0,0,0,0,0,0,0,0,0,0,0,0,0,0,0,0,0,0,0,0,0,0,0,0,0,0,0,0,0,0,0,0,0,0,0,0,0,0,0,0,0,0,0,0,0,0,0,0,0,0,0,0,0,0,0,0,0,0,0,0,0,0,0,0,0,0,0,0,0,0,0,0,0,0,0,0,0,0,0,0,0,0,0,0,0,0,0,0
0,0,0,0,0,0,0,0,0,0,0,0,0,0,0,0,0,0,0,0,0,0,0,0,0,0,0,0,0,0,0,0,0,0,0,0,0,0,0,0,0,0,0,0,0,0,0,0,0,0,0,0,0,0,0,0,0,0,0,0,0,0,0,0,0,0,0,0,0,0,0,0,0,0,0,0,0,0,0,0,0,0,0,0,0,0,0,0,0,0,0,0,0,0,0,0,0,0,0,0,0,0,0,0,0,0,0,0,0,0,0,0,0,0,0,0,0,0,0,0,0,0,0,0,0,0,0,0,0,0,0,0,0,0,0,0,0,0,0,0,0,0,0,0,0,0,0,0,0,0,0,0,0,0,0,0,0,0,0,0,0,0,0,0,0,0,0,0,0,0
0,0,0,0,0,0,0,0,0,0,0,0,0,0,0,0,0,0,0,0,0,0,0,0,0,0,0,0,0,0,0,0,0,0,0,0,0,0,0,0,0,0,0,0,0,0,0,0,0,0,0,0,0,0,0,0,0,0,0,0,0,0,0,0,0,0,0,0,0,0,0,0,0,0,0,0,0,0,0,0,0,0,0,0,0,0,0,0,0,0,0,0,0,0,0,0,0,0,0,0,0,0,0,0,0,0,0,0,0,0,0,0,0,0,0,0,0,0,0,0,0,0,0,0,0,0,0,0,0,0,0,0,0,0,0,0,0,0,0,0,0,0,0,0,0,0,0,0,0,0,0,0,0,0,0,0,0,0,0,0,0,0,0,0,0,0,0,0,0,0
0,0,0,0,0,0,0,0,0,0,0,0,0,0,0,0,0,0,0,0,0,0,0,0,0,0,0,0,0,0,0,0,0,0,0,0,0,0,0,0,0,0,0,0,0,0,0,0,0,0,0,0,0,0,0,0,0,0,0,0,0,0,0,0,0,0,0,0,0,0,0,0,0,0,0,0,0,0,0,0,0,0,0,0,0,0,0,0,0,0,0,0,0,0,0,0,0,0,0,0,0,0,0,0,0,0,0,0,0,0,0,0,0,0,0,0,0,0,0,0,0,0,0,0,0,0,0,0,0,0,0,0,0,0,0,0,0,0,0,0,0,0,0,0,0,0,0,0,0,0,0,0,0,0,0,0,0,0,0,0,0,0,0,0,0,0,0,0,0,0
0,0,0,0,0,0,0,0,0,0,0,0,0,0,0,0,0,0,0,0,0,0,0,0,0,0,0,0,0,0,0,0,0,0,0,0,0,0,0,0,0,0,0,0,0,0,0,0,0,0,0,0,0,0,0,0,0,0,0,0,0,0,0,0,0,0,0,0,0,0,0,0,0,0,0,0,0,0,0,0,0,0,0,0,0,0,0,0,0,0,0,0,0,0,0,0,0,0,0,0,0,0,0,0,0,0,0,0,0,0,0,0,0,0,0,0,0,0,0,0,0,0,0,0,0,0,0,0,0,0,0,0,0,0,0,0,0,0,0,0,0,0,0,0,0,0,0,0,0,0,0,0,0,0,0,0,0,0,0,0,0,0,0,0,0,0,0,0,0,0
0,0,0,0,0,0,0,0,0,0,0,0,0,0,0,0,0,0,0,0,0,0,0,0,0,0,0,0,0,0,0,0,0,0,0,0,0,0,0,0,0,0,0,0,0,0,0,0,0,0,0,0,0,0,0,0,0,0,0,0,0,0,0,0,0,0,0,0,0,0,0,0,0,0,0,0,0,0,0,0,0,0,0,0,0,0,0,0,0,0,0,0,0,0,0,0,0,0,0,0,0,0,0,0,0,0,0,0,0,0,0,0,0,0,0,0,0,0,0,0,0,0,0,0,0,0,0,0,0,0,0,0,0,0,0,0,0,0,0,0,0,0,0,0,0,0,0,0,0,0,0,0,0,0,0,0,0,0,0,0,0,0,0,0,0,0,0,0,0,0
0,0,0,0,0,0,0,0,0,0,0,0,0,0,0,0,0,0,0,0,0,0,0,0,0,0,0,0,0,0,0,0,0,0,0,0,0,0,0,0,0,0,0,0,0,0,0,0,0,0,0,0,0,0,0,0,0,0,0,0,0,0,0,0,0,0,0,0,0,0,0,0,0,0,0,0,0,0,0,0,0,0,0,0,0,0,0,0,0,0,0,0,0,0,0,0,0,0,0,0,0,0,0,0,0,0,0,0,0,0,0,0,0,0,0,0,0,0,0,0,0,0,0,0,0,0,0,0,0,0,0,0,0,0,0,0,0,0,0,0,0,0,0,0,0,0,0,0,0,0,0,0,0,0,0,0,0,0,0,0,0,0,0,0,0,0,0,0,0,0
0,0,0,0,0,0,0,0,0,0,0,0,0,0,0,0,0,0,0,0,0,0,0,0,0,0,0,0,0,0,0,0,0,0,0,0,0,0,0,0,0,0,0,0,0,0,0,0,0,0,0,0,0,0,0,0,0,0,0,0,0,0,0,0,0,0,0,0,0,0,0,0,0,0,0,0,0,0,0,0,0,0,0,0,0,0,0,0,0,0,0,0,0,0,0,0,0,0,0,0,0,0,0,0,0,0,0,0,0,0,0,0,0,0,0,0,0,0,0,0,0,0,0,0,0,0,0,0,0,0,0,0,0,0,0,0,0,0,0,0,0,0,0,0,0,0,0,0,0,0,0,0,0,0,0,0,0,0,0,0,0,0,0,0,0,0,0,0,0,0
0,0,0,0,0,0,0,0,0,0,0,0,0,0,0,0,0,0,0,0,0,0,0,0,0,0,0,0,0,0,0,0,0,0,0,0,0,0,0,0,0,0,0,0,0,0,0,0,0,0,0,0,0,0,0,0,0,0,0,0,0,0,0,0,0,0,0,0,0,0,0,0,0,0,0,0,0,0,0,0,0,0,0,0,0,0,0,0,0,0,0,0,0,0,0,0,0,0,0,0,0,0,0,0,0,0,0,0,0,0,0,0,0,0,0,0,0,0,0,0,0,0,0,0,0,0,0,0,0,0,0,0,0,0,0,0,0,0,0,0,0,0,0,0,0,0,0,0,0,0,0,0,0,0,0,0,0,0,0,0,0,0,0,0,0,0,0,0,0,0
0,0,0,0,0,0,0,0,0,0,0,0,0,0,0,0,0,0,0,0,0,0,0,0,0,0,0,0,0,0,0,0,0,0,0,0,0,0,0,0,0,0,0,0,0,0,0,0,0,0,0,0,0,0,0,0,0,0,0,0,0,0,0,0,0,0,0,0,0,0,0,0,0,0,0,0,0,0,0,0,0,0,0,0,0,0,0,0,0,0,0,0,0,0,0,0,0,0,0,0,0,0,0,0,0,0,0,0,0,0,0,0,0,0,0,0,0,0,0,0,0,0,0,0,0,0,0,0,0,0,0,0,0,0,0,0,0,0,0,0,0,0,0,0,0,0,0,0,0,0,0,0,0,0,0,0,0,0,0,0,0,0,0,0,0,0,0,0,0,0
0,0,0,0,0,0,0,0,0,0,0,0,0,0,0,0,0,0,0,0,0,0,0,0,0,0,0,0,0,0,0,0,0,0,0,0,0,0,0,0,0,0,0,0,0,0,0,0,0,0,0,0,0,0,0,0,0,0,0,0,0,0,0,0,0,0,0,0,0,0,0,0,0,0,0,0,0,0,0,0,0,0,0,0,0,0,0,0,0,0,0,0,0,0,0,0,0,0,0,0,0,0,0,0,0,0,0,0,0,0,0,0,0,0,0,0,0,0,0,0,0,0,0,0,0,0,0,0,0,0,0,0,0,0,0,0,0,0,0,0,0,0,0,0,0,0,0,0,0,0,0,0,0,0,0,0,0,0,0,0,0,0,0,0,0,0,0,0,0,0
0,0,0,0,0,0,0,0,0,0,0,0,0,0,0,0,0,0,0,0,0,0,0,0,0,0,0,0,0,0,0,0,0,0,0,0,0,0,0,0,0,0,0,0,0,0,0,0,0,0,0,0,0,0,0,0,0,0,0,0,0,0,0,0,0,0,0,0,0,0,0,0,0,0,0,0,0,0,0,0,0,0,0,0,0,0,0,0,0,0,0,0,0,0,0,0,0,0,0,0,0,0,0,0,0,0,0,0,0,0,0,0,0,0,0,0,0,0,0,0,0,0,0,0,0,0,0,0,0,0,0,0,0,0,0,0,0,0,0,0,0,0,0,0,0,0,0,0,0,0,0,0,0,0,0,0,0,0,0,0,0,0,0,0,0,0,0,0,0,0
0,0,0,0,0,0,0,0,0,0,0,0,0,0,0,0,0,0,0,0,0,0,0,0,0,0,0,0,0,0,0,0,0,0,0,0,0,0,0,0,0,0,0,0,0,0,0,0,0,0,0,0,0,0,0,0,0,0,0,0,0,0,0,0,0,0,0,0,0,0,0,0,0,0,0,0,0,0,0,0,0,0,0,0,0,0,0,0,0,0,0,0,0,0,0,0,0,0,0,0,0,0,0,0,0,0,0,0,0,0,0,0,0,0,0,0,0,0,0,0,0,0,0,0,0,0,0,0,0,0,0,0,0,0,0,0,0,0,0,0,0,0,0,0,0,0,0,0,0,0,0,0,0,0,0,0,0,0,0,0,0,0,0,0,0,0,0,0,0,0
0,0,0,0,0,0,0,0,0,0,0,0,0,0,0,0,0,0,0,0,0,0,0,0,0,0,0,0,0,0,0,0,0,0,0,0,0,0,0,0,0,0,0,0,0,0,0,0,0,0,0,0,0,0,0,0,0,0,0,0,0,0,0,0,0,0,0,0,0,0,0,0,0,0,0,0,0,0,0,0,0,0,0,0,0,0,0,0,0,0,0,0,0,0,0,0,0,0,0,0,0,0,0,0,0,0,0,0,0,0,0,0,0,0,0,0,0,0,0,0,0,0,0,0,0,0,0,0,0,0,0,0,0,0,0,0,0,0,0,0,0,0,0,0,0,0,0,0,0,0,0,0,0,0,0,0,0,0,0,0,0,0,0,0,0,0,0,0,0,0
0,0,0,0,0,0,0,0,0,0,0,0,0,0,0,0,0,0,0,0,0,0,0,0,0,0,0,0,0,0,0,0,0,0,0,0,0,0,0,0,0,0,0,0,0,0,0,0,0,0,0,0,0,0,0,0,0,0,0,0,0,0,0,0,0,0,0,0,0,0,0,0,0,0,0,0,0,0,0,0,0,0,0,0,0,0,0,0,0,0,0,0,0,0,0,0,0,0,0,0,0,0,0,0,0,0,0,0,0,0,0,0,0,0,0,0,0,0,0,0,0,0,0,0,0,0,0,0,0,0,0,0,0,0,0,0,0,0,0,0,0,0,0,0,0,0,0,0,0,0,0,0,0,0,0,0,0,0,0,0,0,0,0,0,0,0,0,0,0,0
0,0,0,0,0,0,0,0,0,0,0,0,0,0,0,0,0,0,0,0,0,0,0,0,0,0,0,0,0,0,0,0,0,0,0,0,0,0,0,0,0,0,0,0,0,0,0,0,0,0,0,0,0,0,0,0,0,0,0,0,0,0,0,0,0,0,0,0,0,0,0,0,0,0,0,0,0,0,0,0,0,0,0,0,0,0,0,0,0,0,0,0,0,0,0,0,0,0,0,0,0,0,0,0,0,0,0,0,0,0,0,0,0,0,0,0,0,0,0,0,0,0,0,0,0,0,0,0,0,0,0,0,0,0,0,0,0,0,0,0,0,0,0,0,0,0,0,0,0,0,0,0,0,0,0,0,0,0,0,0,0,0,0,0,0,0,0,0,0,0
0,0,0,0,0,0,0,0,0,0,0,0,0,0,0,0,0,0,0,0,0,0,0,0,0,0,0,0,0,0,0,0,0,0,0,0,0,0,0,0,0,0,0,0,0,0,0,0,0,0,0,0,0,0,0,0,0,0,0,0,0,0,0,0,0,0,0,0,0,0,0,0,0,0,0,0,0,0,0,0,0,0,0,0,0,0,0,0,0,0,0,0,0,0,0,0,0,0,0,0,0,0,0,0,0,0,0,0,0,0,0,0,0,0,0,0,0,0,0,0,0,0,0,0,0,0,0,0,0,0,0,0,0,0,0,0,0,0,0,0,0,0,0,0,0,0,0,0,0,0,0,0,0,0,0,0,0,0,0,0,0,0,0,0,0,0,0,0,0,0
0,0,0,0,0,0,0,0,0,0,0,0,0,0,0,0,0,0,0,0,0,0,0,0,0,0,0,0,0,0,0,0,0,0,0,0,0,0,0,0,0,0,0,0,0,0,0,0,0,0,0,0,0,0,0,0,0,0,0,0,0,0,0,0,0,0,0,0,0,0,0,0,0,0,0,0,0,0,0,0,0,0,0,0,0,0,0,0,0,0,0,0,0,0,0,0,0,0,0,0,0,0,0,0,0,0,0,0,0,0,0,0,0,0,0,0,0,0,0,0,0,0,0,0,0,0,0,0,0,0,0,0,0,0,0,0,0,0,0,0,0,0,0,0,0,0,0,0,0,0,0,0,0,0,0,0,0,0,0,0,0,0,0,0,0,0,0,0,0,0
0,0,0,0,0,0,0,0,0,0,0,0,0,0,0,0,0,0,0,0,0,0,0,0,0,0,0,0,0,0,0,0,0,0,0,0,0,0,0,0,0,0,0,0,0,0,0,0,0,0,0,0,0,0,0,0,0,0,0,0,0,0,0,0,0,0,0,0,0,0,0,0,0,0,0,0,0,0,0,0,0,0,0,0,0,0,0,0,0,0,0,0,0,0,0,0,0,0,0,0,0,0,0,0,0,0,0,0,0,0,0,0,0,0,0,0,0,0,0,0,0,0,0,0,0,0,0,0,0,0,0,0,0,0,0,0,0,0,0,0,0,0,0,0,0,0,0,0,0,0,0,0,0,0,0,0,0,0,0,0,0,0,0,0,0,0,0,0,0,0
