108,364,172,278,168,64,90,104,60,182,311,97,178,133,75,146,174,222,179,233,222,186,237,84,81,167,197,93,144,189,150,118,103,209,270,516,80,241,92,269,77,189,170,112,145,178,237,163,154,82,229,234,157,142,91,283,222,136,89,259,297,86,292,141,117,322,196,80,220,72,181,63,178,123,134,177,178,160,359,100,194,285,88,144,126,96,92,206,208,318,106,164,142,135,276,115,270,223,331,167,230,264,91,213,108,207,140,143,199,170,143,171,128,90,208,179,237,136,92,148,221,81,144,135,175,257,213,138,125,156,194,72,285,117,248,78,205,152,201,66,144,92,65,75,331,162,204,175,245,217,161,70,128,369,282,197,156,282,137,168,177,159,124,190,411,238,73,195,141,271,100,225,108,164,210,206,285,228,97,379,199,180,132,95,117,62,156,135,256,281,119,172,149,64,205,161,210,221,159,187,64,148,261,227,163,164,382,98,63,275,138,118,253,266,149,386,174,286,179,133,209,192,244,259,61,191,119,156,181,130,101,98,151,185,119,74,60,80,138,291,61,133,134,193,133,184,78,294,122,123,101,121,163,117,130,72,236,203,135,221,395,101,138,199,128,246,212,300,132,191,71,162,88,67,110,102,147,280,124,95,116,179,148,121,257,109,216,266,177,299,98,168,107,142,128,205,113,82,135,198,177,298,156,319,164,64,70,65,74,251,349,245,259,82,141,244,137,228,162,260,86,92,100,185,210,115,371,265,170,135,62,115,103,246,150,129,371,183,167,88,216,144,137,117,131,194,131,184,114,176,163,133,145,281,143,180,126,255,138,121,273,159,85,403,65,146,128,133,184,261,100,186,239,264,95,134,247,89,297,113,166,232,138,91,306,224,214,172,151,309,148,205,96,184,178,80,175,103,106,80,140,181,132,127,80,95,188,376,337,107,85,61,303,87,103,110,88,92,133,97,332,166,182,176,337,166,175,108,356,259,201,217,102,118,224,68,124,75,147,81,68,185,153
259,752,369,475,283,308,209,289,388,417,592,447,381,252,233,377,495,466,409,391,404,392,472,326,289,367,644,331,346,366,397,270,237,365,484,904,167,478,244,447,269,372,363,321,598,334,563,327,270,342,501,441,253,404,217,558,402,332,200,446,707,229,581,352,254,676,371,285,396,188,535,260,357,356,471,306,365,344,564,278,338,483,203,260,571,293,439,474,420,540,436,389,458,407,542,379,551,375,484,379,428,411,266,396,205,454,301,401,337,310,294,354,327,299,374,300,351,270,346,353,396,232,400,344,405,512,532,205,359,339,386,327,673,236,472,326,367,319,600,226,390,206,195,290,558,360,350,287,498,452,301,168,376,824,498,614,293,655,442,404,249,449,266,448,624,373,182,377,269,511,292,515,216,285,392,515,496,364,212,779,389,312,226,227,276,162,380,242,675,540,235,413,313,342,348,332,421,498,353,325,205,406,550,416,245,326,1022,229,228,556,342,345,489,429,348,939,357,476,580,514,498,544,598,437,288,309,251,471,493,308,222,217,340,294,265,236,201,304,237,554,199,298,311,472,383,365,326,531,397,271,270,564,450,514,396,186,544,432,288,409,732,247,392,511,269,428,519,507,306,370,226,314,430,273,275,324,271,443,212,225,303,465,300,310,463,221,368,468,254,706,385,409,289,327,281,401,362,205,468,485,413,584,313,470,281,235,177,244,206,475,645,678,531,160,451,367,296,480,361,521,212,261,459,358,373,275,670,609,334,567,339,352,324,418,353,217,915,479,347,271,436,276,291,243,317,341,308,408,323,306,311,295,320,555,266,305,340,819,306,236,539,471,305,909,202,381,263,299,407,478,239,411,463,474,183,247,808,472,596,377,327,447,285,268,548,396,459,346,319,576,316,509,193,454,328,378,365,229,203,214,389,317,325,364,184,218,512,619,528,223,320,319,1236,265,360,385,284,181,357,172,606,372,464,290,541,290,430,245,622,479,392,378,247,356,371,250,330,258,404,227,341,318,342
371,1017,558,694,512,555,441,473,584,566,874,798,618,355,510,602,715,677,556,558,628,665,648,541,448,533,941,544,597,548,565,407,367,527,699,1270,382,700,395,635,428,502,586,646,956,619,960,516,392,638,737,750,336,697,323,820,629,630,462,758,1010,359,842,464,373,916,522,611,641,285,757,466,552,565,729,553,552,633,1006,432,473,709,319,378,762,489,653,696,808,759,762,583,697,586,966,645,744,576,634,620,653,683,652,680,303,633,457,591,476,447,446,491,491,425,516,470,451,394,592,597,622,371,595,607,644,710,764,279,619,521,579,733,938,345,672,502,488,497,817,393,555,355,412,534,846,560,482,494,804,612,577,277,634,1132,771,848,429,1010,778,643,445,697,400,644,873,685,306,574,395,674,568,812,556,449,707,871,641,677,349,1075,541,448,538,365,425,263,625,370,974,798,351,529,466,493,468,553,650,739,580,439,354,580,812,621,344,468,1352,362,464,796,517,796,744,609,548,1341,545,812,1154,910,697,727,784,627,516,460,363,859,736,592,341,390,595,401,415,425,367,586,367,788,355,456,501,808,608,656,567,738,695,612,488,730,646,973,591,382,740,639,484,714,1016,414,721,772,432,542,865,714,419,557,490,468,764,491,412,498,404,624,315,512,519,692,448,495,683,372,526,645,502,895,694,710,466,565,445,690,792,497,899,762,597,871,432,569,413,614,379,443,401,618,949,941,707,260,698,471,546,704,484,990,397,446,818,553,575,409,1111,1084,550,860,589,631,605,641,528,396,1447,749,519,477,647,428,409,364,534,471,456,654,563,448,450,512,467,832,373,439,533,1385,547,367,809,765,737,1209,335,607,401,462,657,721,515,544,769,672,281,392,1013,1074,1060,639,490,784,414,452,767,647,699,521,544,844,539,740,432,677,570,714,478,327,296,379,596,456,503,559,287,320,730,977,724,341,497,476,1321,493,577,656,576,376,536,249,869,565,686,408,838,411,636,357,819,800,602,531,365,573,560,572,492,447,678,352,639,476,486
522,1349,701,896,671,816,606,654,857,886,1114,977,956,469,676,728,872,927,650,731,864,1047,907,819,631,660,1321,788,791,720,907,549,495,777,908,1543,681,920,456,886,586,651,812,650,1149,884,1339,681,507,908,1045,1265,415,899,457,1128,825,826,592,982,1314,503,1116,522,490,1282,754,777,813,381,893,721,769,804,1025,697,727,813,1222,601,607,888,453,474,964,684,792,929,1053,950,1156,765,841,801,1211,838,1028,758,785,778,1051,851,761,956,401,807,562,737,618,589,589,629,680,559,915,589,579,520,841,850,764,456,798,857,997,911,989,421,758,726,751,1031,1331,525,920,725,695,683,1025,569,790,468,592,656,1073,908,642,752,1045,783,724,415,875,1434,911,1069,563,1294,1085,875,666,776,549,768,1190,1057,439,686,535,900,871,1066,799,607,998,1200,831,916,511,1260,724,625,812,573,578,364,855,473,1216,1056,458,712,585,720,580,720,855,963,690,562,468,814,1156,842,407,653,1691,523,628,1157,729,1028,980,826,748,1897,713,1144,1586,1303,991,909,1099,921,721,606,663,1146,1024,864,518,508,811,525,538,554,506,766,494,1058,518,745,875,1012,783,839,813,1009,830,868,612,879,883,1381,830,495,1004,839,690,844,1226,555,985,976,600,691,1160,896,569,781,654,637,1098,632,560,673,523,894,394,658,766,934,600,699,920,563,650,797,728,1131,1016,948,710,755,577,1032,1046,620,1258,1052,780,1155,543,645,575,777,483,689,543,827,1486,1256,957,344,954,577,707,918,652,1274,542,643,994,731,743,542,1420,1326,786,1076,865,904,793,870,741,593,2008,1011,678,658,875,613,585,472,727,626,602,799,800,579,573,686,718,990,491,687,746,1947,807,481,1094,1082,892,1534,482,777,512,622,948,1051,671,739,1110,895,381,531,1148,1452,1366,902,647,988,539,607,992,852,944,812,713,1111,686,1090,577,954,727,1076,641,550,388,502,798,625,676,811,374,596,936,1176,896,459,738,660,1471,693,827,964,801,483,724,326,1095,711,924,615,1007,492,808,536,1139,1029,782,753,469,820,698,822,668,601,926,543,897,700,630
623,1601,906,1130,857,1019,728,841,1211,1090,1366,1178,1154,574,836,890,1007,1191,776,874,1141,1399,1157,1054,757,791,1597,990,995,932,1145,686,715,923,1112,1829,957,1179,609,1158,719,813,1028,741,1494,1067,1737,869,629,1189,1331,1499,503,1091,592,1439,995,1064,780,1272,1651,638,1388,648,620,1560,915,971,999,481,1027,928,1022,992,1298,840,916,1005,1444,848,735,1121,587,541,1204,899,952,1093,1587,1217,1328,995,1002,1139,1482,1065,1226,995,935,912,1343,1008,866,1137,499,978,697,918,760,723,741,752,868,677,1147,717,698,664,1092,1105,895,609,1003,1123,1397,1150,1175,562,1189,911,929,1328,1509,653,1294,1074,854,932,1208,723,952,607,742,909,1264,1114,807,873,1275,955,1017,564,1173,1920,1232,1293,801,1699,1449,1108,855,906,672,929,1496,1350,553,869,661,1136,1070,1393,1027,756,1189,1503,995,1109,633,1605,907,789,1007,703,730,452,1102,687,1483,1314,620,909,713,935,696,939,1091,1137,823,741,600,970,1384,1090,557,790,2027,650,839,1504,902,1257,1199,990,947,2494,916,1446,1987,1702,1200,1085,1461,1096,987,845,849,1432,1219,1239,617,683,1023,628,718,671,628,1031,620,1324,664,906,1037,1210,882,1134,1067,1251,969,1116,705,1050,1205,1686,1081,678,1246,1047,849,1110,1542,709,1301,1300,734,821,1477,1087,693,926,844,785,1431,839,683,864,668,1061,482,792,1008,1231,748,894,1125,666,801,985,905,1391,1398,1333,863,955,729,1349,1323,829,1505,1333,959,1442,705,716,945,945,598,851,707,1036,1795,1528,1219,421,1262,706,1105,1130,783,1632,691,817,1289,949,923,678,1768,1606,968,1412,1059,1168,1002,1049,916,919,2549,1259,849,862,1092,771,703,706,914,773,792,958,1045,727,698,833,862,1384,597,891,940,2266,953,612,1460,1349,1182,1816,642,978,747,784,1304,1214,826,965,1335,1093,464,659,1333,2053,1607,1164,829,1196,638,747,1209,1026,1187,1018,910,1378,921,1374,714,1221,903,1286,802,768,499,622,996,815,804,1024,458,861,1143,1487,1144,566,995,873,1919,880,1062,1281,989,685,905,402,1272,909,1145,740,1255,617,1128,691,1397,1238,999,941,567,1048,896,1075,875,802,1165,683,1169,836,770
751,1813,1084,1344,1002,1255,875,1036,1536,1299,1538,1346,1364,724,1113,1049,1136,1433,954,1044,1332,1665,1355,1295,938,923,1855,1175,1318,1114,1321,851,900,1107,1318,2085,1247,1437,732,1378,843,956,1234,1004,1774,1229,2126,1047,743,1479,1535,1849,582,1275,702,1786,1220,1291,895,1432,2081,760,1689,900,795,1807,1060,1136,1152,591,1160,1081,1214,1158,1555,1023,1105,1289,1677,1027,855,1304,660,686,1485,1136,1239,1379,1814,1502,1460,1198,1318,1505,1716,1318,1504,1220,1090,1036,1644,1087,978,1350,596,1155,849,1064,948,864,994,889,1025,866,1428,888,834,778,1312,1356,1008,756,1207,1367,1661,1332,1524,703,1510,1101,1100,1546,1967,773,1535,1287,983,1099,1438,882,1195,726,863,1154,1440,1315,936,1054,1496,1127,1266,688,1448,2226,1549,1516,937,2037,1930,1348,1097,1122,872,1205,1832,1632,683,1012,800,1352,1405,1649,1283,836,1419,1865,1214,1386,763,1871,1078,932,1312,1008,889,540,1308,789,1759,1573,760,1144,947,1175,848,1141,1305,1402,987,880,796,1155,1585,1277,748,939,2341,818,1004,1834,1163,1515,1428,1172,1144,3029,1139,1626,2392,2095,1487,1432,1703,1284,1221,969,981,1717,1421,1479,843,841,1286,734,851,786,751,1248,734,1697,803,1195,1404,1650,1033,1314,1277,1474,1097,1360,943,1193,1476,2057,1333,776,1612,1247,1168,1252,1770,852,1554,1561,936,1018,1710,1270,811,1081,1049,935,1764,1066,863,1292,787,1234,575,979,1136,1482,900,1086,1341,777,953,1187,1109,1591,1779,1666,1274,1208,864,1618,1499,1062,1695,1627,1138,1728,851,847,1340,1117,764,1095,866,1238,1994,1792,1414,501,1556,867,1422,1282,976,1897,824,1032,1551,1146,1123,789,2115,1846,1189,1632,1318,1437,1173,1269,1100,1131,3096,1513,1014,1047,1335,955,822,865,1072,969,1053,1071,1275,869,912,980,1061,1658,718,1131,1151,2797,1147,729,1791,1593,1365,2100,793,1172,877,968,1575,1413,1111,1206,1639,1327,560,785,1588,2435,1869,1425,965,1508,752,868,1460,1318,1429,1284,1162,1645,1087,1728,922,1497,1129,1502,1009,978,627,742,1257,974,987,1207,570,987,1360,1758,1338,668,1192,1006,2460,1061,1291,1579,1214,795,1034,477,1583,1103,1359,892,1463,753,1284,824,1604,1562,1181,1108,657,1281,1029,1326,1039,960,1437,838,1437,974,956
864,2125,1240,1546,1132,1500,1002,1227,1882,1615,1754,1528,1623,815,1279,1145,1276,1594,1079,1206,1631,1952,1525,1553,1133,1086,2113,1368,1489,1320,1508,1012,1086,1360,1532,2482,1489,1675,984,1581,973,1082,1444,1201,2086,1482,2524,1258,867,1755,1713,2075,685,1477,839,2057,1430,1475,1092,1789,2385,880,1978,1050,947,2069,1255,1470,1324,701,1281,1209,1387,1326,1786,1265,1292,1465,1912,1233,985,1509,924,806,1824,1339,1588,1556,2080,1891,1783,1425,1505,1808,2011,1581,1704,1354,1246,1256,1942,1540,1087,1521,694,1402,977,1244,1125,1004,1160,1049,1180,1078,1692,1010,950,902,1470,1610,1149,942,1413,1770,2035,1698,1821,844,1759,1299,1269,1833,2250,890,1779,1532,1117,1269,1757,1076,1358,873,996,1275,1692,1536,1093,1240,1563,1349,1403,835,1709,2523,1834,1934,1178,2264,2206,1588,1287,1377,1052,1470,2182,1916,823,1166,935,1512,1653,1978,1531,965,1620,2067,1434,1621,942,2147,1257,1125,1549,1165,1031,638,1538,1065,2028,1830,874,1358,1081,1402,1027,1280,1529,1751,1133,1000,999,1355,1805,1465,884,1100,2592,961,1079,2126,1379,1948,1642,1390,1343,3455,1343,1753,2935,2486,1684,1615,2006,1482,1444,1094,1093,1952,1661,1735,1009,951,1545,940,983,915,878,1465,865,2032,930,1353,1563,1938,1321,1604,1511,1666,1240,1596,1086,1365,1819,2236,1630,894,1895,1470,1329,1514,1974,987,1826,1823,1065,1228,1963,1543,925,1264,1213,1076,2084,1312,992,1485,894,1524,665,1131,1240,1737,1055,1268,1577,915,1135,1356,1468,1740,2124,2026,1558,1471,984,1947,1936,1273,2023,1907,1377,2024,962,1041,1434,1383,915,1320,1028,1420,2351,2102,1679,582,1791,984,1587,1427,1181,2140,977,1260,1797,1350,1266,919,2379,2103,1344,2049,1456,1711,1357,1446,1293,1333,3634,1771,1146,1256,1663,1104,962,979,1239,1110,1252,1175,1574,1010,1033,1127,1281,1933,847,1296,1342,3357,1410,859,2287,1873,1533,2621,936,1399,1032,1235,1847,1668,1282,1361,1912,1601,665,910,1862,3029,2193,1686,1123,1730,872,1058,1738,1541,1673,1504,1370,1911,1262,2009,1088,1701,1304,1818,1277,1200,733,842,1458,1198,1164,1416,656,1149,1585,1983,1496,783,1382,1146,3005,1288,1513,1877,1436,861,1206,556,1840,1251,1649,1035,1722,948,1422,966,1903,1773,1448,1315,802,1501,1203,1577,1237,1139,1693,1008,1607,1103,1136
979,2717,1486,1748,1285,1759,1231,1464,2195,1754,2125,1662,1901,927,1438,1265,1473,1826,1170,1464,1865,2239,1806,1806,1268,1255,2487,1565,1625,1480,1685,1192,1229,1553,1750,2726,1769,1884,1092,1791,1113,1217,1685,1409,2282,1670,2918,1427,982,2041,1956,2308,814,1676,967,2304,1598,1711,1193,1981,2678,1005,2301,1258,1078,2398,1543,1753,1526,822,1506,1379,1572,1550,2129,1508,1494,1638,2201,1310,1116,1752,1105,923,2078,1547,1809,1729,2358,2114,2038,1562,1680,2110,2247,1846,1964,1583,1524,1475,2242,1851,1176,1792,792,1583,1089,1377,1279,1143,1439,1195,1327,1204,1929,1135,1064,1027,1695,1862,1349,1035,1618,2008,2266,2034,2029,985,2070,1484,1461,2093,2593,1056,2001,1815,1355,1448,1968,1232,1597,990,1125,1522,2042,1652,1219,1348,1644,1498,1606,930,1913,2842,2112,2167,1315,2604,2473,1819,1465,1596,1194,1605,2586,2194,943,1316,1068,1736,1998,2304,2158,1095,1840,2453,1628,1858,1052,2429,1406,1291,1760,1364,1164,740,1777,1173,2446,2089,987,1541,1230,1607,1130,1399,1735,1947,1244,1117,1180,1545,2026,1651,963,1238,2670,1136,1222,2405,1538,2186,1887,1552,1543,3921,1511,1900,3287,2886,1975,1793,2203,1745,1693,1211,1216,2510,1837,1929,1159,1178,1806,1065,1127,1009,1034,1669,985,2281,1055,1508,1920,2127,1563,1780,1844,1913,1365,1838,1318,1537,2132,2535,1858,1045,2116,1677,1556,1699,2269,1136,2139,2089,1224,1371,2268,1748,1035,1433,1414,1218,2401,1623,1146,1704,1065,1690,771,1271,1394,1992,1206,1475,1789,1083,1266,1520,1719,2029,2486,2220,1742,1682,1133,2199,2104,1490,2313,2231,1563,2342,1067,1221,1693,1729,1111,1601,1178,1637,2656,2398,1861,673,2042,1088,1763,1579,1393,2596,1154,1417,2057,1583,1452,1032,2603,2295,1495,2260,1678,1986,1549,1651,1475,1575,4184,2030,1303,1437,2028,1262,1084,1097,1401,1254,1402,1386,1792,1144,1152,1242,1431,2213,964,1439,1554,3925,1566,972,2590,2174,1774,2860,1073,1664,1154,1400,1977,1848,1417,1632,2128,1838,751,1033,2018,3413,2424,1950,1283,2061,996,1203,1993,1721,1920,1683,1542,2180,1445,2410,1295,1888,1485,2163,1527,1416,904,998,1671,1360,1321,1629,753,1278,1835,2431,1695,887,1634,1274,3312,1480,1904,2152,1655,1030,1324,629,2114,1443,1872,1178,1951,1111,1600,1168,2157,2000,1636,1499,922,1702,1351,1828,1419,1348,1946,1127,1803,1236,1274
1101,3097,1670,1948,1443,2020,1360,1603,2462,1939,2432,1814,2246,1038,1727,1440,1640,2047,1353,1667,2156,2568,2039,2058,1438,1400,2831,1747,1867,1633,1895,1337,1358,1680,1954,3080,2048,2140,1247,2077,1222,1341,1893,1675,2404,1864,3309,1603,1104,2314,2287,2456,932,2015,1076,2503,1769,1885,1328,2172,3157,1140,2631,1428,1187,2683,1816,1946,1739,927,1703,1500,1775,1750,2406,1666,1672,1810,2407,1602,1241,2001,1247,1040,2331,1798,2023,1968,2596,2335,2228,1745,1823,2300,2534,2113,2159,1767,1677,1696,2541,2085,1269,2065,890,1828,1216,1574,1428,1281,1706,1366,1468,1394,2080,1310,1169,1166,1842,2115,1496,1203,2069,2403,2643,2293,2150,1125,2337,1665,1646,2320,3007,1184,2275,2030,1486,1722,2350,1390,1756,1124,1247,1762,2295,1777,1455,1517,1862,1692,1763,1030,2267,3251,2398,2385,1452,2861,2845,2064,1658,1784,1341,1849,2854,2471,1103,1456,1198,1912,2234,2560,2500,1227,2019,2819,1849,2090,1163,2732,1577,1476,1958,1574,1331,836,2064,1276,2774,2341,1100,1703,1434,1860,1269,1596,1971,2232,1405,1234,1315,1708,2371,1866,1134,1390,0,1326,1359,2686,1732,2413,2152,1735,1742,4338,1709,2382,3805,3284,2184,1970,2414,1925,1902,1448,1327,2789,2108,2174,1288,1308,2058,1164,1326,1145,1183,1862,1114,2687,1206,1660,2075,2372,1867,2084,2070,2161,1489,2011,1505,1704,2438,2750,2051,1205,2396,1888,1716,1810,2455,1248,2374,2360,1340,1509,2568,1954,1196,1644,1609,1358,2720,1825,1346,1904,1197,1864,858,1509,1663,2208,1360,1657,2010,1199,1414,1670,1786,2253,2851,2538,1878,1902,1313,2445,2442,1712,2632,2584,1748,2720,1215,1393,1889,2020,1229,1823,1323,1836,2960,2744,2073,754,2325,1215,1906,1726,1532,2933,1362,1626,2382,1936,1648,1133,2861,2615,1678,2508,2052,2111,1788,1823,1680,1791,4723,2281,1529,1641,2276,1408,1236,1227,1541,1468,1546,1531,2022,1283,1300,1467,1629,2493,1081,1568,1749,4483,1755,1105,2877,2465,1956,3141,1200,1967,1333,1563,2167,2060,1566,1795,2408,2044,842,1172,2564,4007,2852,2213,1462,2340,1117,1422,2196,1996,2278,1885,1749,2504,1617,2627,1422,2226,1697,2492,1764,1627,1028,1128,1919,1516,1462,1878,842,1434,2109,2630,1839,1044,1866,1568,3814,1676,2105,2432,2075,1159,1512,707,2373,1644,2110,1366,2167,1226,1782,1379,2369,2250,1793,1658,1090,1934,1532,2055,1579,1499,2178,1282,2043,1366,1417
1209,3277,1839,2169,1600,2269,1505,1803,2727,2121,2746,2019,2543,1151,1893,1703,1857,2211,1472,1819,2394,2892,2239,2316,1624,1587,3157,1938,2056,1792,2115,1510,1531,1909,2195,3336,2349,2394,1349,2259,1340,1509,2098,1941,2523,2032,0,1757,1218,2564,2543,2718,1034,2291,1205,2886,2036,2077,1479,2429,3485,1269,2900,1562,1303,2920,2073,2155,1905,1020,1823,1665,1959,1960,2686,1822,1906,1999,2632,1824,1378,2222,1368,1160,2588,2002,2293,2142,2815,2524,2541,2007,1968,2538,2745,2380,2479,1943,1827,1831,2785,2314,1350,2206,987,2008,1394,1773,1575,1420,1845,1509,1693,1519,2315,1427,1280,1283,2074,2362,1672,1402,2277,2602,3075,2548,2265,1267,2516,1869,1846,2579,3313,1362,2633,2250,1603,1890,2579,1546,2000,1240,1400,2002,2533,1906,1597,1640,2165,1888,1935,1226,2545,3577,2617,2602,1691,3236,3240,2291,1882,2124,1480,2077,3154,2754,1218,1589,1320,2095,2487,2876,2797,1386,2416,3180,2053,2303,1274,3028,1800,1619,2253,1858,1455,929,2266,1470,3031,2486,1244,2080,1591,2103,1414,1730,2201,2466,1658,1355,1437,1894,2544,2072,1231,1550,0,1498,1590,2949,1922,2859,2405,1954,1942,4893,1883,2765,4207,3680,2472,2160,2576,2117,2098,1583,1600,3113,2433,2372,1431,1416,2257,1278,1456,1260,1385,2120,1242,0,1337,1814,2231,2730,2017,2252,2330,2511,1623,2119,1757,1850,2747,3192,2307,1369,2618,2065,2029,1942,2629,1412,2737,2622,1494,1644,2853,2134,1311,1836,1879,1505,3037,2273,1531,2026,1308,2143,950,1642,1861,2495,1516,1867,2243,1361,1597,1870,1963,2491,3185,2779,2116,2124,1481,2750,2661,1945,3077,2977,1970,3020,1336,1586,2034,2293,1430,2106,1464,1978,3256,3068,2325,851,2653,1339,2051,1872,1728,3221,1516,1840,2792,2139,1828,1284,3122,2897,1916,2738,2264,2389,1975,2040,1853,2013,5272,2523,1793,1824,2455,1551,1390,1371,1794,1603,1687,1798,2245,1424,1430,1658,1789,2638,1199,1772,1960,5051,2038,1220,3173,2706,2224,3434,1321,2131,1466,1727,2480,2260,1692,2036,2700,2264,928,1285,2734,4395,3148,2369,1638,2620,1264,1573,2440,2217,2522,2352,1995,2716,1802,3020,1618,2492,1926,2809,1959,1793,1171,1236,2126,1664,1672,2050,924,1676,2362,2863,1964,1182,2109,1774,4122,1863,2296,2703,2246,1269,1643,782,2538,1837,2320,1503,2415,1370,1988,1538,2662,2610,1972,1868,1223,2187,1675,2238,1820,1766,2447,1473,2224,1498,1633
1320,3520,2019,2353,1755,2527,1655,1974,2926,2315,3058,2151,2700,1273,2052,1806,1999,2345,1584,1975,2607,3194,2364,2582,1800,1789,3441,2168,2224,1929,2278,1676,1668,2070,2379,3529,2562,2659,1564,2483,1490,1737,2398,2208,2657,2209,0,1924,1341,2907,2760,2950,1136,2470,1311,3159,2213,2280,1594,2704,3867,1394,3294,1728,1421,3153,2226,2335,2110,1126,1960,1873,2117,2230,2964,2026,2063,2246,2855,2198,1493,2451,1484,1349,2817,2204,2438,2410,3022,2790,2710,2224,2207,2839,3022,2648,2736,2149,1975,2031,2988,2657,1455,2485,1084,2180,1521,1972,1712,1558,2015,1642,1904,1676,2550,1557,1385,1407,2219,2589,1876,1611,2481,2785,3301,2781,2434,1407,2802,2055,2022,0,3515,1478,2873,2543,1791,2068,2820,1734,2161,1388,1633,2252,2805,2113,1744,1755,2357,2118,2116,1365,2751,3880,2944,2821,1827,3533,0,2529,2072,2313,1597,2205,3383,3032,1296,1693,1457,2392,2974,3109,3002,1521,0,0,2287,2546,1380,3348,2003,1779,2418,1969,1599,1015,2465,1593,3270,2782,1375,2340,1804,2312,1539,1846,2412,2658,1775,1479,1597,2103,2740,2283,1469,1688,0,1686,1784,3126,2103,3090,2654,2115,2144,5437,2061,3115,4619,4226,2671,2505,2730,2404,2331,1760,1848,3350,2625,2614,1556,1513,2501,1406,1545,1363,1539,2392,1369,0,1518,1894,2406,2897,2215,2555,2565,2715,1815,2248,1952,2013,3051,3594,2529,1515,2881,2278,2206,2105,2790,1594,3057,2878,1604,1829,0,2332,1420,1996,2061,1645,3357,2626,1659,2141,1412,2310,1038,1775,2043,2787,1670,2064,2448,1580,1736,2062,2360,2729,3558,3003,2245,2428,1638,3100,2884,2064,3367,3305,2159,3428,1426,1779,2133,2664,1576,2236,1598,2182,3552,3310,2577,923,2920,1491,2243,2023,1941,3519,1661,2038,3121,2433,2019,1449,3336,3347,2071,3017,2412,2540,2157,2216,2038,2209,5819,2780,1967,2027,2655,1755,1608,1516,1999,1762,1903,2009,2493,1556,1692,1868,1979,2808,1309,1900,2152,5374,2233,1351,3466,2953,2450,3631,1486,2272,1611,2021,2687,2494,1830,2217,2963,2469,1021,1468,2896,4727,3387,2610,1829,2810,1426,1885,2654,2344,2769,2577,2218,2983,1950,3312,1748,2754,2153,3152,2108,2131,1333,1369,2328,1873,1798,2276,1028,1808,2615,3376,2199,1353,2430,2046,4627,2052,2505,2975,2476,1365,1803,862,2790,2040,2596,1717,2631,1492,2249,1764,2822,2832,2173,2058,1412,2454,1858,2559,1986,1960,2714,1627,2439,1633,1774
1435,3797,2244,2564,1876,2750,1765,2108,0,2464,3360,2282,2800,1397,2325,1876,2221,2560,1690,2101,2832,3538,2568,2817,1978,1965,3739,2374,2510,2135,2567,1856,1796,2302,2582,3811,2798,2897,1738,2713,1641,1921,2583,2377,2803,2345,0,2142,1455,3122,0,3209,1215,2680,1438,3574,2401,2512,1794,2968,4272,1513,3581,1936,1650,3471,2340,2486,2336,1226,2095,2046,2317,2445,3239,2170,2230,2448,3242,2438,1614,2781,1635,1468,0,2404,2772,2808,3388,3073,2840,2394,2358,3239,3263,2914,3035,2280,2123,2170,3187,2984,1555,2835,1181,2359,1694,2275,1851,1699,2164,1777,2124,1896,2724,1724,1511,1546,2463,2828,2008,1765,2682,3035,3529,3000,2647,1549,3132,2246,2183,0,3680,1589,3117,2778,1958,2262,0,1887,2337,1509,1876,2500,3067,2243,1931,1867,2611,2359,2324,1506,3028,4382,3219,3239,1966,3828,0,2762,2314,2405,1730,2318,3608,3311,1447,1813,1579,2573,3243,3428,3229,1710,0,0,2476,2792,1493,3704,2175,1930,2760,2263,1765,1112,2731,1702,3491,3060,1511,2556,2001,2524,1669,1995,2666,2919,1960,1615,1712,2320,2955,2499,1599,1841,0,1861,1956,3456,2281,3311,2895,2309,2347,5987,2238,3444,5021,4633,2966,2688,2938,2584,2460,1950,2090,3695,2849,2752,1700,1696,2734,1510,1657,1470,1737,2743,1500,0,1671,1979,2580,3283,2360,2726,2765,2941,2011,2452,2096,2151,3275,3878,2721,1666,3123,2440,2364,2292,3124,1762,3307,3046,1757,1962,0,2530,1580,2167,2238,1786,3672,2857,1805,2416,1518,2492,1128,1959,2245,3067,1824,2256,2669,1770,1905,2280,2574,0,3910,3185,2388,2679,1804,3340,3270,2259,3633,3600,2342,3734,1552,1979,2225,3033,1715,2426,1785,2380,3855,3570,2833,1026,3190,1629,2401,2188,2189,3875,1776,2206,3461,2644,2242,1590,3575,3619,2236,3329,2678,2676,2347,2421,2231,2403,6363,3056,2119,2210,2946,1855,1736,1632,2216,1908,2056,2127,2728,1688,1812,2077,2181,3046,1430,2151,2363,5896,2437,1464,3842,3222,2675,3864,1668,2522,1754,2189,2862,2721,1976,2386,3222,2695,1114,1638,3070,4831,3627,2876,1984,3063,1655,2079,2887,2556,3016,2787,2514,3250,2170,3623,1960,2975,2340,3369,2337,2347,1447,1477,2593,2106,1963,2472,1134,1933,2872,3751,2434,1530,2668,2171,4933,2234,2709,3276,2686,1432,1973,1016,3092,2244,2826,1936,2814,1666,2478,1968,3146,3204,2433,2212,1522,2702,2004,2842,2185,2162,2972,1820,2645,1766,1937
1540,4104,2400,2764,2065,2973,2017,2299,0,2697,3636,2439,2877,1581,2497,2003,2359,2745,1829,2260,0,3974,2764,3044,2150,2090,3805,2627,2737,2332,2729,2033,1918,2442,2793,4022,2991,3170,1909,2905,1769,2095,2782,2591,2958,2519,0,2339,1575,3442,0,3488,1298,2936,1545,3863,2609,2693,1913,3159,4680,1693,3862,2098,1771,3891,2671,2735,2546,1346,2296,2196,2504,2683,3522,2303,2374,2621,3555,2716,1766,2999,1805,1571,0,2609,2986,3133,3624,3461,3165,2523,2600,3583,0,3181,3281,2509,2271,2380,3570,3216,1667,3036,1279,2542,1813,2428,1990,1837,2311,1924,2391,2030,2977,1845,1629,1664,2692,3042,2136,1950,2883,3293,3751,3340,2769,1689,3445,2444,2349,0,4127,1700,3352,3010,2075,2507,0,2044,2547,1640,2025,2739,3328,2473,2074,2009,2774,2529,2690,1650,3219,4687,3517,3471,2096,4339,0,3003,2506,2694,1859,2489,3842,3595,1608,1937,1695,2758,3511,3796,3484,1873,0,0,2624,3032,1637,0,2325,2090,3047,2483,1943,1209,2946,1774,3739,3322,1624,2769,2130,2737,1794,2146,2868,3118,2121,1748,1821,2522,0,2687,1756,2015,0,2013,2084,3770,2410,3552,3129,2521,2552,6536,2529,3654,5427,5032,3177,2859,3165,2775,2550,2086,2234,4009,3086,3025,1896,1811,2937,1617,1787,1595,1963,2885,1617,0,1874,2103,2721,3481,2551,3028,2962,3105,2140,2653,2299,2316,3465,4140,2896,1837,3405,2587,2606,2422,3733,1903,3582,3352,1872,2130,0,2770,1697,2284,2393,1933,3911,3133,1927,2646,1632,2766,1217,2112,2373,3326,1974,2442,2911,1928,2106,2448,2803,0,4202,3424,2581,2934,1962,3564,3472,2379,4007,3884,2524,4055,1689,2199,2359,3310,1852,2673,1929,2518,4336,3769,3068,1120,3477,1743,2538,2332,2361,4157,1938,2410,3547,2831,2444,1762,3817,4158,2398,3416,2821,2771,2552,2588,2415,2675,6912,3345,2261,2414,3176,2041,1944,1750,2288,2052,2213,2410,2968,1830,2098,2236,2354,3312,1700,2324,2559,6202,2686,1597,4124,3478,2912,4179,1816,2688,1919,2352,3030,2955,2120,2564,3485,2955,1200,1773,3338,5229,4139,3140,2142,3300,1787,2262,3088,2715,3254,3015,2733,3520,2340,3977,2102,3177,2549,3742,2484,2569,1579,1578,2802,2245,2144,2668,1237,2052,3109,4096,2730,1640,2887,2357,5454,2419,2902,3567,2874,1570,2100,1092,3309,2438,3063,2091,0,1793,2645,2155,3398,3440,2638,2428,1627,2885,2181,3054,2368,2319,3217,1988,2796,1898,2083
1728,4466,2649,2988,2198,3214,2161,2469,0,2937,3881,2609,3023,1696,2657,2178,2548,2932,1943,2416,0,4325,3148,3310,2271,2249,3876,2828,2963,2494,2974,2195,2078,2596,3023,4309,3375,3426,2087,3124,1911,2248,2972,2763,3220,2705,0,2592,1692,3763,0,3700,1417,3121,1674,4201,2818,3044,2028,3403,5048,1865,4150,2227,1913,4260,2882,3043,2766,1506,2442,2496,2688,2850,3803,2447,2555,2793,3860,3091,1892,3340,1990,1700,0,2854,3125,3397,3930,3686,3490,2663,2821,3897,0,3449,3491,2638,2419,2568,3864,3554,1813,3158,1376,2774,1969,2605,2128,1977,2578,2053,2571,2167,3255,1972,1743,1786,2844,3287,2265,2092,3086,3671,4007,3522,2863,1831,3753,2628,2515,0,4397,1824,3594,3251,2203,2674,0,2242,2729,1760,2218,2980,3647,2593,2223,2144,2959,2761,2893,1747,3413,5191,3789,3687,2332,4683,0,3233,2750,2951,1991,2767,4154,3875,1731,2081,1819,3004,3675,4040,3762,1985,0,0,2784,3273,1765,0,2533,2262,3236,2719,2098,1324,3210,1886,3993,3591,1738,2974,2284,3004,1896,2288,3111,3352,2268,1861,1946,2844,0,2869,1939,2155,0,2150,2223,4073,2657,3980,3380,2687,2756,7533,2713,3813,5760,5433,3384,3033,3332,3063,2650,2289,2336,4273,3285,3238,2047,1995,3190,1741,1919,1756,2088,3095,1708,0,1999,2267,3033,3679,2770,3199,3182,3319,2304,2751,2579,2453,3780,4326,0,1944,3621,0,2755,2614,3960,2093,3839,3606,2025,2375,0,2963,1853,2490,2647,2079,4225,3387,2067,3143,1795,2937,1304,2303,2580,3553,2128,2641,3131,2128,2282,2649,3190,0,4492,3683,2781,3256,2078,3807,3682,2631,4292,4165,2761,4442,1828,2444,2634,3499,1984,2858,2114,2645,4689,4006,3281,1193,3769,1852,2668,2597,2483,4470,2065,2618,3787,3008,2618,1866,4026,4405,2558,3521,3106,2972,2849,2777,2618,2943,7449,3607,2490,2598,3428,2197,2133,1859,2443,2238,2356,2558,3226,1966,2302,2447,2554,3447,1826,2527,2772,6750,2863,1712,4397,3732,3127,4525,2011,2852,2073,2515,3201,3202,2261,2753,3752,3159,1398,1985,3479,5640,4643,3403,2310,3718,1901,2533,3332,2851,3500,3219,2907,3789,2601,4252,2253,3433,2680,3971,2632,2790,1685,1698,3069,2481,2290,2881,1348,2224,3350,4386,2926,1748,3048,2663,5994,2619,3192,3876,3109,1685,2301,1167,3527,2590,3283,2209,0,1944,2799,2317,3612,3659,2833,2616,1739,3126,2332,3359,2528,2502,3481,2118,3187,2027,2249
1846,4849,2874,3226,2331,3469,2280,2662,0,3242,4033,2740,3229,1820,2924,2385,2795,3150,2050,2609,0,4813,3335,3535,2454,2442,4049,3016,3157,2727,3168,2373,2301,2823,3215,4628,3657,3685,2277,3310,2067,2526,3186,3024,3537,2944,0,2800,1812,4049,0,3967,1507,3339,1779,4426,2993,3254,2146,3663,5346,1980,4493,2410,2065,4628,3058,3293,2969,1639,2588,2702,2827,3008,4063,2637,2734,2983,4066,3429,2050,3612,2125,1813,0,3062,3466,3700,4112,3902,3881,2911,2961,4117,0,3715,3765,2844,2572,2780,4164,3747,1971,3381,1474,2957,2105,0,2267,2115,2763,2225,2721,2348,3469,2150,1869,1924,0,3513,2413,2215,3543,3930,4270,3752,3449,1973,4002,2812,2692,0,4643,1941,3896,3527,2451,2856,0,2394,2952,1908,2408,3243,3883,2718,2471,2287,3227,0,3145,1920,3684,5503,4091,3905,2470,4978,0,3475,0,0,2107,2974,4518,4155,1899,2220,1925,3238,4019,4363,4001,2138,0,0,2949,3407,1889,0,2846,2449,3577,2928,2268,1404,3418,2025,4264,3843,1905,3128,2425,3231,2035,2416,3332,3572,2410,2006,2044,3024,0,3008,2124,2304,0,2353,2405,4368,2861,4217,3687,2840,2962,7636,2908,4051,6165,5865,3543,3276,3576,3241,2829,2533,2464,4480,3490,3419,2174,2096,3421,1844,2094,1889,2277,3303,1874,0,2247,2425,3193,4064,3077,3505,3462,3552,2435,2966,0,2577,4044,4475,0,2091,3879,0,3000,2809,4170,2308,4118,3854,2140,2569,0,3150,1980,2714,2904,2228,4461,3583,2259,3334,1918,3235,1395,2488,2829,3828,2278,2826,3399,2259,2449,2812,3424,0,4805,3967,2979,3535,2219,4088,3846,2758,4618,4489,2948,4739,1952,2682,2832,3734,2138,3053,2271,2773,4891,4339,3516,1262,4054,2007,2808,2827,2694,4949,2285,2807,3900,3306,2818,1988,4316,4663,2724,3851,3324,3055,3042,2973,2792,3186,7775,3895,2652,2802,0,2384,2293,1972,2625,2360,2560,2804,3485,2109,2429,2618,2777,3616,1939,2665,3026,7314,2981,1844,4665,4031,3360,4826,2152,3052,2202,2806,3441,3379,2401,2974,4052,3369,1479,2115,3724,6085,4876,3663,2491,3987,2024,2735,3539,3080,3746,3516,3139,4059,2771,4631,2441,3641,2911,4184,2807,3067,1808,1828,3270,2633,2436,3076,1462,2406,3510,4623,3222,1910,3267,2827,6537,2806,3396,4154,3279,1816,2465,1245,3720,2782,3495,2348,0,2175,2933,2471,3915,3927,3034,2809,1835,3340,2534,3565,2773,2709,3696,2270,3413,2159,2422
1964,5215,2996,3460,2466,3730,2430,2816,0,3447,4381,2868,3421,1995,3097,2660,3004,3447,2156,2762,0,5132,3596,3775,2595,2609,4308,3206,3374,2886,3338,2523,2476,2974,3429,4984,3940,4026,2494,3530,2217,2695,3424,3192,3776,3101,0,3019,1929,4308,0,4285,1604,3633,1906,4711,3214,3463,2286,3910,5639,2101,4769,2643,2207,4962,3208,3736,3137,1744,2751,2820,3031,3219,4365,2842,2902,3226,4361,3688,2192,3783,2335,1928,0,3281,3742,3992,4349,4091,4060,3167,3102,4410,0,3983,3960,2980,2729,3016,4462,4103,2060,3540,1571,3205,2295,0,2405,2254,2906,2369,2870,2510,0,2266,2055,2042,0,3740,2586,2354,3750,4198,4639,3980,3749,2115,4352,3013,2874,0,4892,2048,4118,3985,2638,3131,0,2548,3135,2027,2596,3463,4107,0,2636,2544,3419,0,3315,2041,3943,5833,4369,4125,2710,5546,0,3703,0,0,2264,3209,4783,4439,2011,2363,2038,3420,4174,4731,4378,2315,0,0,3191,3717,2003,0,3081,2601,3861,3038,2402,1511,3652,2135,4522,4145,2040,3277,2557,3478,2193,2540,3546,3756,2532,2145,2143,0,0,3223,2313,2468,0,2526,2576,4667,3116,4446,4066,3004,3169,0,3092,4340,6564,6405,3689,3470,3741,3431,3026,2677,2595,4971,3706,3589,2305,2183,3633,1948,2218,1988,2493,3496,2016,0,2382,2714,3551,4279,3477,3671,3701,3829,2660,3140,0,2699,4375,4893,0,2264,4128,0,3149,2930,4378,2502,4455,4020,2287,2787,0,3374,2150,2891,3069,2382,4781,3804,2423,3610,2028,3409,1474,2688,3016,4088,2430,3032,3589,2437,2572,2996,3659,0,5183,4194,3188,3825,2408,4320,4271,2886,4980,4820,3184,5032,2089,2879,3106,3881,2279,3217,2438,2953,5257,4587,0,1326,4322,2125,2969,3095,2865,5220,2501,2989,4077,3616,3012,2091,4555,4905,2882,4432,3467,3208,3274,3477,3007,3456,0,4132,2786,2984,0,2537,2433,2079,2779,2487,2703,2942,3831,2243,2544,2764,2984,3865,2045,2847,3228,7878,3093,1958,4932,4313,3648,5532,2299,3215,2364,2972,3664,3616,2538,3192,4320,3565,1573,2274,3976,6620,5300,3925,2651,4360,2150,2898,3779,3219,4002,3730,3323,4326,3099,4940,2578,3916,3154,4395,3085,3286,1930,1935,3474,2793,2612,3299,1568,2534,3820,4966,3410,2089,3521,3058,6833,2975,3625,4434,3513,1938,2605,1322,3891,2975,3792,2536,0,2345,3203,2604,4167,4178,0,2998,1936,3575,2667,3869,2938,2858,3924,2385,3573,2301,2604
2097,5387,3127,3668,2632,3979,2556,2980,0,3728,4529,3056,3601,2114,3253,2742,3157,3639,2268,2909,0,5538,3817,4022,2770,2794,4585,3390,3634,3095,3475,2657,2691,3130,3629,5181,4208,4262,2589,3749,2364,2850,3623,3449,4004,3295,0,3217,2049,4581,0,4552,1692,3859,2013,4933,3422,3804,2416,4115,6019,2258,5049,2782,2371,5310,3424,3993,3328,1843,2887,3012,3281,3462,4646,3033,3049,3428,4593,3932,2322,4058,2458,2046,0,3524,3908,4166,4606,4359,4202,3409,3328,4756,0,4251,4247,3212,2885,3233,4762,4276,2166,3719,1740,3381,2420,0,2543,2392,3045,2433,3112,2656,0,2451,2173,2166,0,3952,2755,2672,3955,4454,5026,4255,0,2260,4638,3203,3054,0,5088,2202,4361,4193,2775,3304,0,2698,3292,2151,2757,3584,4316,0,2775,2754,3585,0,3535,2179,4228,6292,4673,4541,2848,5861,0,3921,0,0,2462,3480,4997,4721,2129,2503,2172,3790,4425,5062,4735,2447,0,0,3359,3950,2131,0,3274,2737,0,3239,2584,1619,3888,2279,4792,4361,2155,3608,2686,3739,2378,2720,3746,3965,2832,2283,2271,0,0,3402,2402,2610,0,2718,2736,4959,3383,4888,4237,3232,3377,0,3303,4633,6966,6823,3958,3800,4066,3718,3247,2800,2726,5312,3956,3845,2444,2282,3888,2058,2348,2131,2626,3647,2126,0,2575,2877,3704,4540,3686,3974,4025,0,2983,3336,0,2820,4686,5239,0,2428,4385,0,3336,3084,4559,2722,4719,4363,2409,2935,0,3559,2312,3034,3235,2527,5072,4137,2575,3788,2146,3695,1557,2855,3297,4355,2792,3242,3860,2668,2721,3152,3900,0,5516,4379,3342,4019,2585,4645,4509,3014,5282,5268,3371,5329,2199,3028,3367,4134,2378,3530,2654,3149,5565,4917,0,1439,4617,2236,3121,3298,3013,5619,2662,3189,4191,3818,3211,2218,5017,5134,3026,4632,3690,3446,3530,4177,3143,3680,0,4413,2954,3188,0,2705,2550,2196,2994,2646,2846,3173,4124,2387,2730,2912,3219,4137,2171,2968,3438,0,3321,2089,5215,4550,3834,5849,2437,0,2557,3134,3986,3842,2691,3357,4561,3791,1673,2386,4175,7161,5543,4186,2790,4578,2274,3098,3989,3381,4245,3953,3615,4453,3293,5220,2715,4047,3385,4850,3325,3555,2087,2072,3674,2972,2807,3479,1685,2701,4022,5223,3610,2255,3859,3208,7351,3177,3856,4753,3716,2049,2793,1398,4250,3238,4016,2673,0,2471,3426,2769,4383,4424,0,3192,2043,3827,2862,4120,3133,3047,4160,2555,3735,2425,2845
2222,5625,3392,3882,0,4198,2784,3157,0,3978,4968,3194,3697,2220,3519,2890,3303,3865,2372,3085,0,5755,4058,4321,2899,2950,4928,3574,3840,3286,3683,2786,2866,3289,3843,5416,4597,4476,2680,3973,2492,2989,3821,3707,4363,3540,0,3364,2169,4832,0,4801,1783,4072,2141,5269,3594,3986,2560,4354,6349,2391,5400,2895,2516,5542,3650,4256,3523,1949,3008,3139,3511,3700,4927,3247,3237,3603,4813,4164,2469,4280,2583,2237,0,3729,4186,4379,4811,4643,4503,3590,3504,5005,0,4520,4434,3358,3040,3445,5020,4583,2279,3881,1858,3554,2559,0,2685,2532,3206,2645,3307,2852,0,2573,2284,2291,0,4150,2873,2885,4160,4695,5382,4494,0,2406,4962,3420,3231,0,5446,2315,4748,4427,2902,3488,0,2859,3495,2310,2923,3755,4584,0,2934,2990,3837,0,3795,2347,4702,6600,4878,4774,3092,6160,0,4179,0,0,2625,3612,5361,5002,2269,2630,2310,3995,4666,5338,5136,2566,0,0,3525,4143,2232,0,3494,2902,0,3483,2729,1722,4170,2396,5008,4614,2270,3807,2843,3984,2490,2858,3988,4141,2978,2421,2441,0,0,3578,2544,2790,0,2935,2894,5242,3567,5118,4463,3396,3588,0,3513,4924,7373,7366,4145,3982,4302,3900,3471,2953,2856,5602,4145,4056,2579,2378,4109,2167,2460,2250,2749,3858,2264,0,2735,3168,4060,4846,4252,0,4255,0,3224,3560,0,2941,4988,5472,0,2541,4633,0,3566,3307,4751,2890,5043,4670,2545,3095,0,3749,2426,3230,3423,2671,5361,4339,2739,3945,2259,3867,1678,3100,3508,4571,3055,3427,4144,2805,2871,0,4143,0,5819,4631,3508,4226,2765,5166,4850,3198,5497,5615,3554,5614,2343,3213,3438,4394,2510,3775,2843,3350,5869,5232,0,1523,4940,2349,3311,3450,3291,5911,2821,3432,4500,4029,3422,2359,5205,5411,3197,4941,3933,3724,3731,4876,3403,3896,0,4682,3121,3371,0,2850,2707,2315,3186,2873,3071,3313,4276,2520,2865,3111,3408,4275,2290,3099,3631,0,3496,2206,5518,4825,4026,6134,2615,0,2687,3295,4226,4066,2830,3575,4824,4056,1756,2558,4333,7728,5780,4448,2983,4862,2395,3287,4226,3555,4499,4222,3788,4599,3496,5466,2881,4176,3590,5086,3517,3782,2215,2188,3931,3114,2947,3662,1783,2890,4211,5384,3771,2438,4046,3469,7649,3380,4199,5043,3950,2128,2965,1474,4478,0,4243,2852,0,2605,3696,2879,4691,4649,0,3382,2157,4063,3082,4376,3317,3259,4415,2768,4057,2556,3108
2337,5943,3604,0,0,4419,2928,0,0,4169,5277,3426,3905,2320,3692,3122,3429,4087,2499,3301,0,5981,4411,4635,3045,3110,5224,3765,4042,3461,3951,2978,3005,3470,4058,5776,4913,4703,2860,4222,2632,3116,4030,3878,4706,3722,0,3542,2287,5141,0,5069,1886,4270,2246,5529,3773,4147,2691,4660,6637,2515,5715,3003,2635,5781,3833,4527,3720,2045,3192,3278,3678,3884,5142,3423,3439,3775,5015,4466,2609,4487,2729,2353,0,3929,4330,4700,4998,5026,4671,3746,3655,5216,0,4786,4709,3564,3193,3582,5221,4815,2392,4214,2013,3732,2701,0,2825,2671,3375,2804,3491,2991,0,2744,2457,2427,0,4333,3015,3073,4359,4955,5614,4735,0,2553,0,3604,3403,0,5620,2497,0,4651,3071,3763,0,3044,3675,2421,3088,3968,4921,0,3126,3197,4026,0,4024,2472,5019,6901,5223,4997,3346,6408,0,4428,0,0,2798,3857,5655,5282,2435,2757,2460,4240,4880,5722,5414,2725,0,0,3688,4419,2346,0,3646,3060,0,3649,2895,1821,4374,2470,5339,4877,2431,3927,3141,4204,2617,2976,4194,4396,3102,2546,2645,0,0,3827,2671,2932,0,3100,3077,5524,3757,5340,4707,3574,3798,0,3686,5150,7778,7913,4351,4158,4483,4097,3716,3062,2995,5886,4403,4368,2695,2467,4323,2268,2636,2437,2884,4085,2395,0,2916,3332,4210,5009,4554,0,4537,0,3342,3850,0,3061,5292,5853,0,2710,4878,0,3714,3438,4945,3046,5313,4957,2674,3270,0,3963,2593,3426,3575,2824,5704,4630,2882,4202,2394,4045,1778,3311,3710,4852,3313,3651,4343,2917,3056,0,4390,0,6204,4923,3726,4408,2900,5416,5232,3323,5742,5934,3730,5900,2460,3416,3651,4701,2617,3983,3040,3529,6168,5490,0,1622,5202,2478,3692,3602,3416,6278,2975,0,4780,4208,3573,2471,5431,5591,3419,5266,4101,3876,3925,5565,3631,4122,0,4933,3306,3572,0,3019,2898,2441,3349,3006,3225,3484,4592,2729,2985,3333,3676,4449,2402,3243,3843,0,3753,2339,5901,5101,4239,6345,2765,0,2845,3589,4370,4280,3042,3759,5113,4284,1850,2712,4514,0,6013,4713,3145,5104,2526,3569,4429,3752,4846,4470,3982,4725,3724,5922,3006,4394,3774,5439,3699,4005,2343,2310,4149,3278,3117,3900,1869,3038,4393,5906,4088,2537,4276,3741,0,3557,4536,5325,4383,2267,3147,1550,4810,0,4455,2986,0,2817,3847,2991,4941,4852,0,3576,2275,4261,3219,4526,3478,3405,4655,2880,4240,2686,3280
2447,6257,3821,0,0,4668,3054,0,0,4360,5567,3564,4062,2443,3843,3328,3595,4377,2602,3506,0,6465,4581,4857,3214,3267,5547,4003,4245,3658,4307,3137,3239,3636,4269,6075,5264,4965,3097,4476,2758,3258,4248,4113,4979,3919,0,3747,2416,5402,0,5347,2006,4443,2373,5795,4035,4494,2845,4892,7028,2648,6001,3123,2753,6044,4061,4742,3890,2137,3386,3410,3872,4066,5496,3588,3640,3964,5424,4623,2724,4735,2895,2470,0,4118,4645,4939,5192,5248,4926,3948,3894,5546,0,5053,4906,3781,3346,3783,5419,5063,2481,4376,2115,3977,2834,0,3020,2812,3695,2935,3687,3130,0,2868,2594,2547,0,0,3211,3205,4808,5220,5847,4954,0,2699,0,3829,3680,0,5936,2608,0,4896,3229,3930,0,3197,3886,2550,3351,4122,5199,0,3275,3335,4213,0,4279,2539,5243,7218,5457,5222,3484,6694,0,4648,0,0,2936,4048,5880,5564,2614,2871,2583,4468,5066,6035,5606,2842,0,0,3823,4606,2458,0,3795,3231,0,3848,3082,1926,4654,2635,5710,5139,2569,4140,3297,4484,2714,3168,4420,4696,3256,2672,2802,0,0,4082,2774,3083,0,3310,3258,5762,3948,5570,4964,3802,4008,0,3932,5502,8183,0,4684,4350,4634,4379,3936,3215,3311,6163,4611,4562,2802,2625,4585,2365,2753,2566,3067,4414,2490,0,3083,3489,4338,5247,4778,0,4967,0,3499,4020,0,3182,5600,6072,0,2840,5132,0,3881,3598,5196,3216,5626,5246,2813,3432,0,4147,2757,3587,3830,2969,5940,4837,2996,4565,2571,4315,1869,3485,3914,5156,3556,3878,4616,3076,3215,0,4567,0,6593,5155,3965,4636,3090,5668,5586,3444,5968,6233,3933,6190,2546,3594,3903,4931,2727,4188,3226,3667,6472,5905,0,1728,5482,2607,4017,3881,3592,6640,3154,0,5055,4399,3741,2576,5590,5804,3618,5746,4211,4115,4081,5726,3818,4322,0,5197,3466,3755,0,3162,3146,2546,3527,3195,3371,3725,0,2937,3219,3593,3895,4696,2524,3405,4038,0,3923,2450,6188,5377,4462,6559,2919,0,3067,3756,4518,4528,3197,3910,5423,4490,1945,2915,4767,0,6441,4863,3298,5291,2657,3765,4672,3966,5204,4671,4311,5007,3930,6241,3159,4693,3946,5728,3831,4280,2474,2417,4407,3455,3264,4079,1972,3215,4575,6116,4222,2692,4580,3939,0,3750,4742,5597,4559,2376,3363,1628,5005,0,4741,3126,0,2942,3975,3160,5162,5219,0,3952,2376,4537,3399,4875,3722,3676,4966,3063,4510,2817,3441
2555,6783,4008,0,0,4921,3194,0,0,4580,5719,3783,4190,2551,4124,3512,3749,4586,2711,3714,0,6796,4913,5086,3422,3434,5797,4206,4473,0,4654,3272,3384,3815,4475,6233,5907,5205,3281,4707,2882,3398,4503,4392,5128,4187,0,3954,2520,5674,0,5611,2109,4689,2478,6077,4222,4759,2991,5031,7421,2773,6241,3258,2872,6415,4288,4998,4120,2243,3528,3596,4088,4271,5732,3829,0,4253,5655,4903,2876,4960,3173,2589,0,4315,4860,5199,5435,5467,5112,4130,4042,5995,0,5322,5201,4025,3625,4050,5802,5478,2595,4524,2220,4159,3002,0,3198,2949,3866,3070,3891,3343,0,3044,2707,2672,0,0,3405,3334,5017,5462,6079,5262,0,2843,0,4017,3915,0,6379,2767,0,5273,3373,4112,0,3350,4042,2676,3519,4333,5492,0,3410,3468,4441,0,4539,2753,5481,7607,5620,5453,3729,7065,0,4855,0,0,3067,4180,6138,5845,2737,3014,2718,4908,5272,6301,5831,2982,0,0,4079,4890,2576,0,4033,3361,0,4146,3233,2035,4872,2737,5980,5394,2684,4424,3431,4692,2833,3345,4616,4955,3429,2806,2951,0,0,4269,2943,3239,0,3509,3488,6131,4139,6016,5227,3969,4218,0,4140,5766,0,0,4907,4695,4887,4556,4172,3474,3511,6632,4747,4842,2927,2760,4835,2471,2921,2699,3193,4756,2631,0,3219,3779,4495,5445,4949,0,5200,0,3728,4209,0,3303,5883,6424,0,2950,5382,0,4051,3733,5429,3389,5871,5535,2946,3693,0,4351,2914,3799,3992,3152,6277,5047,3113,4774,2682,4486,1966,3679,4111,5428,3795,4067,4886,3240,3407,0,4769,0,6955,5391,4132,4888,3284,5977,5917,3584,6307,6514,4149,6517,2694,3760,4328,5218,2893,4452,3387,3871,6779,6154,0,1817,5785,2764,4181,4027,3787,6940,3271,0,5187,4657,3936,2678,5799,6016,3850,5969,4624,4390,4265,5890,4022,4468,0,5441,3651,3958,0,3336,3321,2645,3665,3322,3589,3911,0,3163,3353,3745,4070,4965,2640,3536,4247,0,4090,2585,6481,5597,4673,6845,3046,0,3199,3919,4794,0,3436,4235,5641,4660,2042,3036,4946,0,6919,5108,3452,5485,2872,4055,4873,4132,5460,4853,4559,5275,4195,6512,3305,4895,4107,6143,4073,4501,2586,2554,4614,3604,3467,4260,2069,3374,4754,6336,4431,2863,4804,4134,0,3972,4935,5866,4777,2483,3509,1704,5176,0,4968,3277,0,3064,4179,3363,5451,5412,0,4144,2491,4724,3538,5130,3889,3942,5189,3213,4735,2953,3724
2663,7042,4361,0,0,5187,3335,0,0,4758,6067,3920,4291,2701,4293,3733,3876,4793,2826,3895,0,7100,5095,5338,3566,3623,6083,4462,4682,0,4823,3435,3506,3985,4686,6440,6220,5424,3441,4916,3004,3566,4692,4657,5369,4358,0,4161,2646,5953,0,5855,2244,4925,2607,6338,4439,5094,3108,5281,7740,2894,6534,3480,3072,6867,4529,5245,4295,2335,3653,3745,4228,4565,6028,4004,0,4434,5962,5114,3029,5335,3453,2785,0,4504,4996,5475,5621,5682,5380,4300,4187,6227,0,5589,5387,4217,3780,4243,6095,5772,2697,4759,2373,4368,3152,0,3356,3087,4023,3212,4085,3501,0,3162,2892,2795,0,0,3561,3466,5227,5787,6427,5502,0,2988,0,4210,4110,0,6629,2917,0,5514,3525,4388,0,3513,4288,2806,3667,4577,5749,0,3576,3581,4638,0,4776,2854,5562,7946,5720,5871,3979,7506,0,5094,0,0,3227,4321,6521,6123,2918,3136,2827,5262,5575,6679,6071,3096,0,0,4222,5119,2692,0,4201,3477,0,4381,3390,2143,5128,2896,6223,5653,2799,4598,3637,4905,2963,3512,4871,5141,3767,2916,3077,0,0,4457,3027,3380,0,3655,3695,6483,4370,6256,5419,4143,4429,0,4320,6067,0,0,5109,4877,5043,4744,4396,3760,3663,7108,5032,5057,3105,2920,5041,2571,3047,2843,3343,4955,2768,0,3333,3938,4841,5740,5196,0,5397,0,3864,4336,0,3424,6169,6642,0,3084,5640,0,4265,3940,5680,3572,6256,5808,3077,3884,0,4545,3034,4002,4199,3351,6555,5327,3230,4975,2802,4662,2054,3889,4340,5688,4031,4274,5094,3354,3567,0,5149,0,7315,5639,4279,5068,3432,6386,6214,3693,6525,6795,4340,6893,2826,3931,4563,5497,3036,4653,3542,4052,7088,6522,0,1892,6057,2920,4362,4189,4049,7298,3452,0,5486,4860,4133,2801,6011,6437,4042,0,4803,4544,4459,6050,4196,4740,0,5730,3799,4143,0,3476,3529,2756,3820,3459,3739,4056,0,3315,3537,3945,4230,5101,2750,3736,4440,0,4303,2698,6799,5887,4903,7046,3171,0,3390,4082,4936,0,3598,4442,5951,0,2131,3170,5206,0,7258,5261,3642,5750,3009,4206,5088,4473,5709,5068,4690,5545,4461,6801,3446,5138,4281,6471,4233,4785,2763,2672,4807,3831,3604,4525,2189,3810,4969,6604,4673,3034,4975,4259,0,4173,5188,6187,5047,2590,3658,1781,5395,0,5204,3467,0,3252,4333,3494,5615,5652,0,4343,2611,4978,3742,5387,4083,4140,5429,3335,4940,3084,3958
2771,7237,4586,0,0,5442,3559,0,0,5002,6356,4099,4371,2805,4448,3885,4124,5095,2941,4085,0,7317,5318,5585,3753,3893,6447,4664,4856,0,4994,3602,3656,4156,4893,6770,6509,5676,3672,5126,3125,3759,4897,4833,5583,4521,0,4358,2771,6228,0,6140,2410,0,2710,0,4650,5264,3344,5470,0,3018,6922,3615,3225,7199,4675,5440,4499,2436,3763,3927,4542,4790,6345,4185,0,4620,6209,5369,3163,5609,3677,2903,0,4710,5332,5696,5864,5899,5556,4468,4323,6458,0,5856,5661,4355,4061,4387,6395,6002,2814,5005,2503,4593,3284,0,3502,3227,4181,3376,4276,3762,0,3284,3002,2980,0,0,3712,3587,5426,6042,6659,5773,0,3131,0,4405,4295,0,6892,3059,0,5780,3680,4561,0,3696,4453,2931,3928,4821,6022,0,3762,3734,4832,0,5035,2958,5704,0,5800,6108,4120,7822,0,5309,0,0,3333,4520,6684,6406,3052,3285,2933,5434,5791,7017,6369,3210,0,0,4448,5369,2817,0,4408,3640,0,4596,3516,2248,5337,3069,6464,6003,2961,4809,3822,5105,3097,3780,5091,5305,3914,3026,3189,0,0,4654,3156,3531,0,3789,3875,6822,4534,6486,5673,4370,4640,0,4538,6407,0,0,5407,5050,5224,4950,4647,3908,3778,7729,0,5276,3223,3162,5270,2667,3162,2962,3488,5080,2897,0,3475,4232,4995,6013,5403,0,5625,0,4049,4451,0,3545,6477,7060,0,3250,5885,0,4424,4140,5889,3742,6594,6068,3210,4120,0,4728,3146,4183,4396,3507,6868,5533,3349,5376,2946,4936,2150,4023,4560,5949,4267,4500,5320,3517,3793,0,5381,0,7674,5892,4476,5352,3586,6587,6391,3822,6813,7090,4568,7201,2936,4126,4764,5944,3209,4927,3675,4249,7393,6946,0,1990,6330,3031,4510,4412,4168,7699,3616,0,5867,5062,4348,2918,6246,6655,4270,0,4987,4782,4640,6207,4413,5019,0,5997,3936,4348,0,3633,3715,2890,3963,3662,4000,4174,0,3453,3656,4106,4385,5271,2874,3875,4651,0,4445,2831,7283,6168,5084,7346,3308,0,3522,4373,5210,0,3741,4643,6247,0,2219,3278,5423,0,7598,5506,3865,6008,3186,4383,5292,4673,5961,5286,0,5814,4637,7044,3617,5380,4455,6838,4437,5001,2920,2775,5013,4017,3788,4755,2276,4040,5217,6978,4918,3153,5251,4544,0,4368,5392,6473,5320,2700,3895,1855,5681,0,5415,3692,0,3418,4467,3600,5940,5908,0,4537,2721,5170,3871,5640,4268,4344,5672,3487,5196,3215,4110
2943,7566,4971,0,0,5707,3728,0,0,5254,6597,4262,4452,2922,4612,4105,4266,5419,3063,4272,0,7771,5549,5858,3896,4082,6709,4850,5045,0,5205,3751,3817,4289,5105,7199,6877,5933,3791,5329,3246,3981,5124,5064,5731,4668,0,4518,2886,6486,0,6397,2551,0,2838,0,4828,5547,3547,5671,0,3142,7196,3735,3384,7457,4933,5588,4669,2551,3909,4066,4780,4971,6629,4352,0,4911,6455,5553,3294,5807,3915,3020,0,4963,5548,5952,6053,6120,5824,4687,4455,6693,0,6126,5847,4488,4222,4543,6694,6249,2908,5211,2656,4835,3474,0,3642,3369,4342,3511,4495,3892,0,3457,3207,3112,0,0,3855,3709,5630,6245,6981,5931,0,3276,0,4593,4470,0,7240,3217,0,6132,3857,4744,0,3852,4600,3065,4056,4981,6279,0,3896,4064,5132,0,5269,3126,5826,0,6029,6330,4355,8320,0,5532,0,0,3500,4795,6948,6686,3184,3424,3047,5667,6119,7275,6594,3346,0,0,4612,5611,2928,0,4608,3780,0,4855,3664,2360,5547,3167,6689,6172,3124,5122,4163,5444,3229,3931,5304,5588,4069,3140,3320,0,0,4888,3262,3696,0,3918,4168,7119,4713,6938,6013,4536,4850,0,4730,6735,0,0,5664,5388,5562,5205,4862,4030,3891,0,0,5639,3343,3280,5537,2762,3295,3062,3610,5367,3017,0,3634,4394,5123,6342,5574,0,5853,0,4224,4575,0,3667,6720,7234,0,3388,6133,0,4610,4281,6232,3905,6877,6333,3345,4255,0,4925,3331,4326,4553,3678,7143,5805,3515,5617,3060,5103,2250,4234,4742,6213,4506,4687,5552,3686,3970,0,5612,0,8033,6168,4577,5585,3764,6828,6591,3938,7203,7374,4760,7613,3036,4310,4893,6251,3385,5112,3798,4530,7697,7305,0,2092,6610,3140,4636,4616,4317,7990,3750,0,6227,5359,4548,3021,6493,6887,4460,0,5199,5051,4895,6365,4596,5256,0,6243,4185,4531,0,3774,3833,3039,4128,3781,4153,4276,0,3600,3861,4254,4562,5516,2998,3997,4846,0,4558,2943,7717,6417,5286,7733,3443,0,3655,4540,5364,0,3893,4820,6533,0,2310,3392,0,0,7949,5772,4020,6420,3306,4556,5497,4870,6206,5536,0,6085,4813,7439,3803,5609,4661,7129,4584,5222,3031,2872,5271,4254,3985,4957,2390,4193,5444,7231,5188,3317,5497,4938,0,4633,5549,6749,5569,2799,4068,2010,5910,0,5682,3947,0,3575,4711,3797,6197,6208,0,4735,2875,5438,4071,5894,4432,4505,5940,3699,5477,3345,4259
3147,7872,5172,0,0,5951,3853,0,0,5541,6845,4397,4530,3028,4763,4341,4421,5668,3204,4461,0,8271,5818,6083,4032,4289,6956,5026,5259,0,5394,3914,3959,4544,5318,7519,7200,6190,3940,5537,3369,4252,5346,5342,5986,4912,0,4687,3103,6775,0,6794,2673,0,2948,0,5045,5760,3721,5868,0,3265,7478,3949,3491,7809,5184,5787,4867,2667,4049,4283,4964,5262,6877,4510,0,5089,6720,5882,3424,6105,4058,3138,0,5172,5686,6139,6265,6339,6150,4959,4603,7093,0,6393,6124,4722,4376,4770,6994,6491,3008,5448,2799,5015,3587,0,3781,3506,4587,3634,4713,4008,0,3577,3338,3237,0,0,4027,3840,6081,6490,7292,6134,0,3420,0,4811,4646,0,7578,3325,0,6286,4013,4931,0,4006,4829,3193,4193,5198,6551,0,4025,4223,5249,0,5536,3237,6026,0,6372,6551,4518,0,0,5788,0,0,3625,4981,7200,6966,3389,3656,3174,5943,6436,7542,6836,3509,0,0,4784,5849,3068,0,4776,3938,0,5010,3799,2472,5803,3272,6945,6488,3275,5384,4397,5731,3359,4050,5499,5756,4346,3267,3438,0,0,5102,3401,3841,0,4134,4395,7401,4915,7170,6246,4706,5057,0,4945,7056,0,0,5975,5573,5751,5380,5130,4169,4025,0,0,5871,3479,3371,5797,2895,3425,3192,3752,5568,3142,0,3815,4552,5286,6568,5786,0,6060,0,4387,4683,0,3789,7052,7731,0,3517,6385,0,4827,4535,6743,4107,7160,6600,3481,4400,0,5126,3471,4531,0,3816,7487,6081,3674,5802,3193,5280,2343,4443,4993,6473,4749,4894,5757,3795,4122,0,5853,0,0,6472,4755,5639,3914,7060,6800,4156,7598,7663,4942,7919,3174,4511,5105,6449,3611,5507,3954,4735,0,7624,0,2183,6913,3248,4848,4845,4510,0,3894,0,6464,5597,4729,3150,6745,7084,4602,0,5461,5307,5083,6523,4803,5536,0,6626,4327,4735,0,3931,4011,3141,4304,3939,4298,4400,0,3781,3982,4441,4769,5787,3115,4119,5055,0,4669,3078,8013,6684,5529,8082,3568,0,3830,4706,5541,0,4032,5073,6772,0,2399,3499,0,0,0,6035,4179,6630,3426,4761,5747,5086,6452,6014,0,6356,4958,7650,4054,5921,4847,7391,4857,5445,3189,3008,5483,4471,4132,0,2490,4404,5690,7451,5311,3480,5740,5127,0,4832,5771,7037,5836,2907,4210,2087,6213,0,5913,4173,0,3745,4892,3900,6407,6423,0,4929,2980,5753,4284,6148,4672,4692,6215,3809,5729,3476,4430
3258,0,5296,0,0,6208,4088,0,0,5808,7101,4570,4739,3133,5040,4519,4634,5942,3311,4705,0,0,6166,6323,4254,4483,7161,5220,5638,0,5541,4039,4195,4693,5530,0,7464,6429,4039,5755,3492,4414,5567,5607,6199,5081,0,4929,3237,7041,0,7095,2780,0,3073,0,5263,5979,3988,6090,0,3390,7744,4100,3653,8076,5355,6042,5078,2792,4174,4432,5214,5423,7194,4678,0,5275,6935,6092,3547,6342,4268,3262,0,5380,6017,6361,0,6553,6333,5122,4745,7444,0,6662,6317,4952,4527,4971,7293,6738,3116,5687,2911,5262,3758,0,3921,3646,4770,3767,4943,4124,0,3707,3459,3374,0,0,4189,4089,6290,6866,7550,6499,0,3701,0,4994,4818,0,7924,3475,0,6612,4184,5183,0,4158,4995,3320,4403,5341,6795,0,4154,4405,5451,0,5777,3351,6315,0,6591,6768,4738,0,0,6059,0,0,3775,5105,7526,7248,3515,3802,3294,6118,6668,7796,7064,3622,0,0,4971,6011,3189,0,4941,4152,0,5226,4002,2593,6034,3377,7231,6749,3416,5578,4563,6008,3489,4169,5644,5976,4532,3384,3576,0,0,5318,3502,4000,0,4291,4549,7639,5071,7396,6455,4945,5265,0,5189,7274,0,0,6193,5747,5908,5566,5410,4358,4163,0,0,6106,3629,3458,6014,3039,3533,3353,3893,5700,3263,0,4012,4843,5438,6856,6109,0,6335,0,4533,4794,0,3911,7363,0,0,3629,6642,0,4985,4779,6996,4313,7443,6798,3614,4562,0,5311,3657,4688,0,3957,7747,6319,3825,6102,3337,5558,2429,4575,5184,6735,4996,5122,5975,3904,4285,0,6088,0,0,6746,4902,5889,4036,7298,7155,4346,7826,0,5138,0,3320,4742,5566,6828,3816,5661,4098,4878,0,8087,0,2288,7183,3354,5010,4993,4641,0,4034,0,6858,5882,4926,3271,6999,7297,4819,0,5640,5578,5325,6682,4978,5657,0,6875,4549,4917,0,4074,4196,3260,4477,4154,4472,4507,0,4032,4107,4630,4953,5926,3227,4276,5247,0,4867,3191,8277,7124,5859,8448,3686,0,3977,4884,5749,0,4167,5293,6978,0,2490,3605,0,0,0,6297,4357,6978,3538,4942,6020,5278,6700,6171,0,6624,5166,8015,4194,6215,5044,7645,5071,5720,3335,3127,5745,4634,4360,0,2631,4551,5945,7715,5720,3673,5968,5342,0,5200,6123,7356,6085,3022,4346,2162,6478,0,6151,4322,0,3860,5066,4033,6691,6637,0,5129,3092,5955,4413,6400,4842,4890,6508,3932,5924,3614,4596
3362,0,5429,0,0,6405,4240,0,0,5999,7384,4699,4898,3254,5135,4779,4788,6223,3450,4887,0,0,6386,6575,4432,4687,7327,5409,5837,0,5746,4220,4355,4885,5736,0,8071,6635,4108,5941,3621,4619,5778,5781,6418,5236,0,5153,3355,7327,0,7339,2897,0,3178,0,5442,6163,4189,6363,0,3512,8125,4221,3793,8488,5602,6308,5273,2865,4325,4580,5366,5662,7476,4891,0,5526,7170,6426,3669,6562,4417,3447,0,5631,6226,6648,0,6772,6559,5340,5025,7691,0,6930,6607,5112,4677,5113,7592,7063,3204,5894,3052,5443,3883,0,4059,3785,5031,3904,5099,4316,0,3880,3594,3550,0,0,4334,4232,6509,7174,7986,6664,0,3925,0,5175,4990,0,8425,3611,0,6823,4328,5348,0,4311,5165,3463,4515,5566,7069,0,4376,4525,5657,0,5959,3527,6535,0,6927,6990,4877,0,0,6270,0,0,3967,5329,7644,7527,3634,3943,3419,6379,6929,0,7336,3746,0,0,5177,6172,3298,0,5152,4303,0,5386,4156,2720,6281,3605,7469,7006,3532,5715,4826,6240,3620,4308,5927,6127,4718,3513,3718,0,0,5508,3589,4162,0,4462,4732,8003,5322,7625,6706,5111,5476,0,5451,7605,0,0,6494,5995,6150,5756,5648,4584,4304,0,0,6408,3806,3630,6227,3188,3690,3477,4028,5911,3359,0,4122,5003,5592,7088,6257,0,6568,0,4864,4921,0,4155,7674,0,0,3761,6892,0,5158,4993,7189,4504,7733,7127,3746,4721,0,0,3798,4916,0,4089,8041,6643,3971,6417,3484,5728,2522,4756,5390,7000,5244,5313,6211,4072,4420,0,6336,0,0,6969,5189,6117,4244,7488,7443,4538,0,0,5361,0,3447,4890,5827,6988,3976,5950,4241,5057,0,0,0,2367,7460,3467,5186,5142,4840,0,4231,0,7222,6063,5122,3395,7378,7493,4943,0,5867,5839,5553,6839,5194,5909,0,7115,4803,5120,0,4223,4309,3403,4635,4301,4614,4717,0,4277,4237,4827,5190,6096,3349,4421,5458,0,4989,3327,0,7361,6044,8704,3802,0,4088,5155,5938,0,4306,5423,7282,0,2581,3793,0,0,0,6560,4508,7227,3703,5100,6285,5458,6942,6497,0,6895,5352,0,4389,6499,5279,7874,5297,5942,3433,3242,5950,4794,4542,0,2701,4703,6183,7993,5856,3819,6217,5473,0,5395,6362,7651,6474,3134,4552,2240,6705,0,6377,4532,0,4146,5275,4212,6859,6889,0,5325,3198,6212,4562,6656,5037,5041,6757,4140,6201,3745,4734
3473,0,5574,0,0,6732,4367,0,0,6391,7670,4847,5009,3374,5204,4999,5002,6518,3554,5055,0,0,6793,6813,4545,4813,7629,5604,6068,0,5972,4369,4568,5109,5945,0,0,6883,4283,6144,3762,4761,5981,6013,6635,5465,0,5288,3575,7577,0,7584,2996,0,3305,0,5656,6507,4368,6568,0,3635,0,4374,3927,8888,5755,6564,5450,2990,4535,4819,5584,5835,7757,5119,0,5735,7361,6696,3786,6759,4635,3565,0,5830,6366,6942,0,6989,6732,5549,5280,8004,0,7199,6799,5297,4827,5318,7891,7449,3276,6152,3154,5612,4032,0,4200,3925,5190,4044,5278,4463,0,3998,3735,3680,0,0,4444,4436,6818,7759,8215,6980,0,4120,0,5384,5153,0,8656,3723,0,7239,4501,5528,0,4471,5375,3587,4643,5807,7305,0,4529,4650,5803,0,6216,3710,6647,0,7157,7224,5118,0,0,6492,0,0,4129,5539,8065,7806,3822,4053,3557,6655,7126,0,7562,3872,0,0,5367,6507,3418,0,5388,4451,0,5556,4293,2810,6489,3707,7726,7265,3646,5892,4968,6477,3773,4470,6134,6357,4847,3639,3849,0,0,5689,3715,4299,0,4607,4865,0,5494,8067,6958,5285,5688,0,5652,7799,0,0,6712,6188,6414,6032,5873,4736,4445,0,0,6603,4013,3790,6492,3300,3805,3627,4197,6095,3458,0,4221,5296,5746,7308,6438,0,6788,0,4995,5109,0,4277,7978,0,0,3889,7136,0,5393,5289,7724,4733,8017,7396,3880,4878,0,0,3915,5099,0,4224,0,6848,4125,6583,3601,5910,2609,4942,5588,7211,5485,5519,6425,4186,4611,0,6583,0,0,7323,5302,6469,4367,7808,7649,4763,0,0,5549,0,3576,5045,5968,7310,4094,6219,4392,5264,0,0,0,2455,7764,3572,5309,5291,5066,0,4349,0,7758,6226,5316,3506,7652,7771,5171,0,6048,6102,5749,7001,5376,6206,0,7382,4956,5304,0,4356,4431,3535,4821,4450,4761,4942,0,4408,4354,5067,5456,6327,3490,4591,5653,0,5112,3436,0,7589,6362,8950,3950,0,4309,5322,6149,0,4454,5600,7593,0,2672,3913,0,0,0,6821,4727,7486,3874,5336,6560,5639,7190,6761,0,7166,5743,0,4540,6787,5618,8229,5503,6166,3570,3362,6145,5023,4736,0,2824,4863,6440,0,5972,3981,6421,5605,0,5597,6607,7951,6616,3294,4765,2315,6893,0,6590,4686,0,4438,5438,4359,7185,7150,0,5526,3296,6420,4735,6910,5219,5226,7045,4268,6402,3875,4874
3587,0,5812,0,0,6982,4518,0,0,6618,7960,5002,5145,3544,5276,5361,5132,6899,3669,5253,0,0,7120,7071,4702,5013,8002,5841,6253,0,6178,4542,4687,5285,6152,0,0,7152,4469,6355,3886,4931,6259,6290,6791,5632,0,5443,3701,7795,0,8069,3098,0,3418,0,5876,6661,4507,6753,0,3799,0,4524,4127,9173,5992,6779,5609,3079,4875,5017,5805,6110,8030,5297,0,5907,7622,6918,3929,7081,4769,3682,0,6029,6701,7094,0,7208,6942,5737,5532,8285,0,7467,7071,5533,4977,5545,0,7625,3469,6347,3248,5787,4175,0,4341,4063,5364,4264,5501,4599,0,4121,3857,3809,0,0,4619,4666,7028,8045,0,7258,0,4283,0,5580,5332,0,8948,3854,0,7533,4665,5811,0,4643,5558,3720,4844,6046,7523,0,4751,4786,5994,0,6476,3840,6921,0,7496,7639,5254,0,0,6723,0,0,4252,5662,8354,8082,3971,4172,3695,6814,7392,0,7860,3987,0,0,5557,6720,3530,0,5584,4606,0,5852,4446,2923,6704,3837,7971,7524,3812,6045,5219,6682,3889,4647,6359,6544,4994,3758,3979,0,0,5869,3828,4457,0,4827,5094,0,5653,8307,7189,5508,5903,0,5926,8085,0,0,7006,6532,6586,6210,6119,4910,4586,0,0,6861,4154,3941,6753,3401,3931,3772,4319,6346,3562,0,4370,5460,5901,7608,6573,0,7019,0,5115,5225,0,4399,8282,0,0,4001,7391,0,5535,5535,7920,4951,0,7661,4017,5061,0,0,4024,5292,0,4353,0,7056,4252,6909,3719,6178,2688,5078,5775,7494,5730,5630,6649,4441,4793,0,6837,0,0,7574,5489,6717,4503,8147,7883,5033,0,0,5785,0,3753,5289,6075,7595,4226,6396,4570,5397,0,0,0,2533,8028,3696,5447,5580,5321,0,4479,0,0,6503,5517,3613,7877,8059,5333,0,6262,6375,5927,7168,5586,6425,0,7629,5195,5508,0,4491,4591,3644,4949,4579,4971,5164,0,4652,4483,5239,5679,6551,3611,4715,5862,0,5234,3571,0,7823,6612,9284,4085,0,4441,5486,6321,0,4594,5762,7840,0,2764,4019,0,0,0,7084,4890,7782,4062,5474,6820,5810,7440,6980,0,7434,6046,0,4749,7047,5855,8492,5667,6389,3685,3469,6349,5155,4915,0,2914,5012,6703,0,6268,4171,6665,5836,0,5788,6791,0,6744,3410,4952,2390,7165,0,6874,4856,0,4612,5568,4512,7445,7380,0,5722,3447,6702,4866,7163,5382,5435,7280,4389,6544,4006,5024
3699,0,5962,0,0,7235,4643,0,0,6837,8246,5141,5202,3642,5357,5394,5306,7307,3789,5412,0,0,7345,7281,4950,5214,8310,6044,6479,0,6467,4708,4817,5435,6365,0,0,7411,4735,6585,4036,5092,6453,6556,6937,5854,0,5619,3827,8173,0,8346,3179,0,3541,0,6057,6942,4717,6969,0,3931,0,4643,4245,9409,6261,6971,5795,3177,5058,5132,6065,6273,8317,5413,0,6079,7828,7121,4068,7260,4918,3805,0,6229,6932,7306,0,7423,7123,5901,5805,0,0,7735,7260,5758,5130,5798,0,7866,3587,6577,3344,5964,4310,0,4540,4198,5538,4399,5675,4735,0,4289,3985,3935,0,0,4879,4804,7376,8245,0,7466,0,4497,0,5753,5492,0,9188,3974,0,7765,4840,5982,0,4795,5779,3842,5039,6175,7774,0,4916,4882,6197,0,6729,3905,7089,0,7791,7872,5395,0,0,6962,0,0,4461,5758,0,0,4092,4363,3829,6975,7678,0,0,4112,0,0,5759,6881,3703,0,5832,4744,0,6028,4599,3035,6957,4027,0,7782,3949,6263,5363,6858,4104,4781,6555,6719,5194,3873,4151,0,0,6047,3951,4621,0,5009,5330,0,5849,8545,7413,5675,6121,0,6164,8284,0,0,7212,6719,6931,6401,6338,5105,4728,0,0,7262,4369,4124,6957,3506,4065,3907,4457,6542,3688,0,4542,5620,6061,7913,6671,0,7227,0,5253,5338,0,4521,8588,0,0,4161,7642,0,5720,5686,8200,5147,0,7944,4148,5222,0,0,4140,5452,0,4493,0,7294,4449,7119,3828,6348,2765,5233,5983,7788,5976,5743,6875,4583,4943,0,7070,0,0,7814,5626,6923,4649,8398,8098,5310,0,0,5972,0,3883,5396,6206,7900,4422,6551,4767,5524,0,0,0,2613,0,3868,5578,5877,5509,0,4588,0,0,6707,5673,3745,0,0,5585,0,6488,6632,6143,7372,5760,6636,0,7838,5345,5694,0,4631,4710,3747,5139,4721,5117,5297,0,4811,4602,5403,5821,6849,3731,4860,6054,0,5424,3686,0,8068,6837,9539,4227,0,4559,5668,6490,0,4732,5943,8098,0,2854,4133,0,0,0,7346,5092,8113,4190,5707,7031,6001,7697,7250,0,7706,6247,0,4908,7256,6076,8759,5899,6673,3805,3611,6612,5327,5051,0,3001,5162,6944,0,6480,4340,6903,6121,0,5983,7106,0,6939,3523,5134,2467,7374,0,7099,4983,0,4780,5720,4704,7650,7633,0,5884,3579,6928,5060,7388,5622,5620,7531,4498,6856,4140,5202
3826,0,6224,0,0,7454,4862,0,0,6992,8541,5347,5354,3751,5519,5576,5445,7571,3908,5601,0,0,7690,7504,5094,5378,0,6299,6698,0,6730,4841,4974,5660,6578,0,0,7631,5035,6748,4173,5331,6668,6728,7070,6082,0,5829,3943,0,0,0,3274,0,3647,0,6278,7170,4933,7184,0,4081,0,4767,4382,9673,6522,7217,5994,3369,5202,5271,6264,6560,0,5598,0,6262,8059,7322,4207,7499,5165,4003,0,6426,7189,7624,0,7639,7411,6102,5960,0,0,7935,7540,5972,5284,5953,0,0,3682,6713,3440,6136,4432,0,4717,4341,5767,4559,5877,4901,0,4409,4109,4117,0,0,5025,4942,7692,0,0,7698,0,4683,0,5959,5685,0,9532,4086,0,8012,5020,6165,0,4951,5960,3980,5216,6420,0,0,5113,4969,6361,0,6986,3976,7222,0,8090,8092,5636,0,0,7193,0,0,4695,5946,0,0,4211,4516,3962,7181,7866,0,0,4258,0,0,5928,7207,3828,0,6024,4921,0,6245,4781,3128,7184,4125,0,8045,4063,6411,5580,7079,4258,4929,6818,6899,5342,4008,4292,0,0,6240,4062,4760,0,5164,5469,0,6036,8982,7635,5849,6340,0,6352,0,0,0,7508,6911,7304,6682,6571,5311,4848,0,0,7469,4488,4330,7184,3617,4202,4020,4581,6674,3782,0,4778,5910,6224,8232,6895,0,7519,0,5659,5541,0,4644,0,0,0,4272,7899,0,5948,5839,8403,5317,0,8091,4282,5370,0,0,4255,5611,0,4661,0,7489,4607,7305,3966,6537,2854,5379,6142,8047,6228,5936,7082,4696,5125,0,7322,0,0,8096,5742,7147,4816,0,8458,5590,0,0,6155,0,4002,5539,6322,8136,4534,6752,4907,5803,0,0,0,2714,0,4059,5705,6025,5733,0,4712,0,0,6907,5766,3867,0,0,5828,0,6748,6898,6354,7542,5974,6860,0,8208,5536,5899,0,4766,4861,3860,5325,4847,5357,5580,0,4950,4823,5615,6012,7113,3844,4993,6265,0,5596,3820,0,8285,7032,9810,4378,0,4717,5937,6654,0,4865,6085,0,0,2944,4249,0,0,0,7609,5254,8416,4318,5844,7274,6180,7936,7553,0,0,6469,0,5086,7479,6280,8979,6143,6890,3939,3727,6827,5489,5205,0,3115,5456,7181,0,6624,4514,7097,6357,0,6262,7301,0,7197,3631,5374,2547,7676,0,7340,5126,0,4947,5831,4876,0,7890,0,6040,3740,7339,5190,7689,5791,5778,7766,4604,7030,4276,5343
3956,0,6391,0,0,7677,5016,0,0,7407,8828,5532,5374,3926,5667,5742,5655,7871,4024,5762,0,0,7891,7729,5189,5542,0,6500,6901,0,7022,5162,5206,5873,6785,0,0,7868,5298,6948,4358,5536,6859,6961,7204,6308,0,5990,4066,0,0,0,3382,0,3774,0,6490,7548,5083,7586,0,4210,0,4908,4538,9932,6755,7478,6198,3501,5351,5418,6495,6754,0,5772,0,6548,0,7604,4328,7797,5318,4118,0,6628,7380,7813,0,7858,7608,6355,6212,0,0,8157,7736,6179,5434,6152,0,0,3757,6924,3536,6324,4624,0,4870,4479,5953,4695,6032,5140,0,4552,4217,4249,0,0,5187,5084,7898,0,0,7982,0,4826,0,6143,5848,0,9872,4267,0,8241,5183,6436,0,5104,6130,4104,5341,6574,0,0,5239,5081,6700,0,7243,4091,7385,0,8380,8312,5773,0,0,7431,0,0,4898,6072,0,0,4399,4678,4096,7337,0,0,0,4422,0,0,6130,7456,3949,0,6206,5065,0,6461,4917,3219,7434,4216,0,0,4179,6670,5732,7310,4391,5039,7059,7096,5482,4139,4425,0,0,6478,4138,4919,0,5276,5693,0,6184,9217,7921,6090,6551,0,6530,0,0,0,7725,7254,7580,6862,6794,5508,5014,0,0,7670,4602,4446,7410,3719,4327,4139,4727,6890,3902,0,4959,6209,6388,0,7183,0,7850,0,5788,5812,0,4767,0,0,0,4445,8139,0,6102,5978,8709,5472,0,8444,4420,5494,0,0,4371,5767,0,4819,0,7723,4779,7592,4105,6800,2938,5519,6349,8310,6479,6146,7304,4809,5259,0,7566,0,0,8356,5883,7421,4955,0,0,5760,0,0,6331,0,4112,5698,6645,0,4664,6968,5093,5988,0,0,0,2799,0,4201,6067,6174,5878,0,4898,0,0,7100,5981,3978,0,0,5987,0,7005,7166,6564,7779,6159,7112,0,8467,5880,6083,0,4935,5007,3970,5462,4985,5501,5804,0,5153,5010,5789,6218,7247,3977,5188,6460,0,5746,3930,0,0,7205,10021,4562,0,4889,6103,6921,0,4999,6237,0,0,3035,4419,0,0,0,7874,5430,0,4440,6026,7547,6403,8185,7797,0,0,6692,0,5224,7723,6470,9225,6304,7163,4127,3846,7086,5659,5383,0,3200,5596,7429,0,6860,4663,7281,6566,0,6453,7556,0,7376,3748,5510,2620,7950,0,7552,5249,0,5117,6088,5059,0,8149,0,6403,3848,7583,5409,7882,5987,5981,8009,4731,7304,4408,5583
4063,0,6579,0,0,7944,5141,0,0,7611,9077,5707,5502,4052,5793,5834,5813,8155,4146,5994,0,0,8148,7982,5450,5726,0,6688,7162,0,7243,5371,5352,5999,6994,0,0,8116,5542,7181,4504,5704,7080,7236,7615,6478,0,6209,4182,0,0,0,3508,0,3881,0,6659,7889,5303,7803,0,4361,0,5068,4712,10221,6968,7671,6419,3604,5506,5581,6672,7035,0,5983,0,6727,0,7808,4519,0,5448,4235,0,6884,7643,8068,0,8075,8027,6610,6368,0,0,8410,8016,6376,5714,6330,0,0,3859,7176,3633,6554,4805,0,5018,4617,6130,4828,6188,5306,0,4709,4340,4375,0,0,5330,5270,0,0,0,8214,0,4967,0,6339,6016,0,10138,4402,0,0,5330,6607,0,5264,6328,4234,5477,6795,0,0,5374,5204,7030,0,7491,4198,7472,0,8678,8529,6012,0,0,7664,0,0,5114,6264,0,0,4568,4839,4225,7592,0,0,0,4546,0,0,6302,7649,4063,0,6410,5287,0,6658,5125,3305,7642,4350,0,0,4334,6875,5941,7526,4592,5164,7255,7282,5598,4264,4540,0,0,6729,4237,5072,0,5456,5869,0,6320,9443,8139,6261,6766,0,6726,0,0,0,8021,7440,7726,7038,7043,5676,5150,0,0,7951,4711,4695,7625,3853,4578,4262,4907,7162,4011,0,5098,6373,6556,0,7395,0,0,0,5930,6016,0,4889,0,0,0,4608,0,0,6333,6158,8976,5656,0,0,4556,5680,0,0,4557,5937,0,5010,0,7968,4964,7822,4243,6973,3043,5658,6494,0,6727,6368,7540,4975,5445,0,7810,0,0,0,5997,7624,5067,0,0,5899,0,0,6537,0,4252,5848,6845,0,4885,7065,5235,6205,0,0,0,0,0,4313,6375,6324,6039,0,5085,0,0,7309,6177,4095,0,0,6183,0,7265,7296,6777,7944,6368,7307,0,8691,6121,6289,0,5070,5153,4081,5621,5156,5648,5925,0,5435,5227,5936,6391,7417,4137,5331,6669,0,5930,4065,0,0,7382,10263,4735,0,5046,6268,7180,0,5283,6376,0,0,3125,4589,0,0,0,8141,5578,0,4697,6203,7810,6562,0,7965,0,0,6903,0,5416,7974,6682,9482,6490,7387,4234,3977,7291,5879,5601,0,3369,5798,7582,0,7071,4873,7457,6770,0,6650,7795,0,7674,3851,5733,2698,8113,0,7822,5454,0,5235,6229,5228,0,0,0,6734,3973,7835,5615,8189,6168,6137,0,4922,7484,4539,5854
4172,0,6745,0,0,0,5282,0,0,7793,9334,5850,0,4155,5934,6013,6024,0,4280,6175,0,0,8397,8215,5710,5864,0,6880,7370,0,7445,5554,5477,6185,7202,0,0,0,5802,7378,4611,5887,7300,7505,7963,6633,0,6354,4304,0,0,0,3654,0,0,0,6830,8129,5451,0,0,4499,0,5284,4849,10531,7131,7882,6595,3733,5632,5746,6862,7203,0,6221,0,6898,0,8206,4693,0,5577,4354,0,7093,7839,8239,0,0,8215,6869,6500,0,0,0,0,6548,5870,6518,0,0,3946,7390,3729,6733,4916,0,5161,4758,6384,4950,6427,5471,0,4836,4450,4511,0,0,5483,5430,0,0,0,0,0,5106,0,6534,6182,0,10328,4555,0,0,5453,6792,0,5450,6502,4356,5600,6947,0,0,5608,5321,7222,0,7767,4387,7610,0,8966,8939,6150,0,0,7889,0,0,5237,6442,0,0,4689,5073,4352,7756,0,0,0,4681,0,0,6469,7966,4187,0,6571,5450,0,6876,5251,3413,7849,4487,0,0,4478,7065,6075,7849,4749,5314,7455,7578,5712,4391,4706,0,0,6919,4343,5213,0,5651,6027,0,6510,9876,0,6450,6977,0,6957,0,0,0,8228,7619,7919,7225,7257,5827,5259,0,0,0,4876,4905,7883,3991,4696,4368,5029,7423,4133,0,5299,6671,6729,0,7717,0,0,0,6069,6206,0,5012,0,0,0,4735,0,0,6489,6359,9607,5809,0,0,4688,5809,0,0,4690,6141,0,5200,0,0,5140,0,4405,7145,3137,5895,6712,0,6977,6548,7762,5141,5638,0,8051,0,0,0,6150,7869,5222,0,0,6043,0,0,6749,0,4450,6019,6966,0,5039,7189,5403,6424,0,0,0,0,0,4425,6531,6474,6248,0,5210,0,0,7492,6390,4223,0,0,6396,0,7401,7582,6952,8165,6543,7523,0,0,6272,6475,0,5253,5271,4191,5756,5281,5791,6124,0,5586,5369,6089,6537,7646,4286,5592,6862,0,6136,4179,0,0,7560,10565,4889,0,5243,6453,7366,0,5427,6506,0,0,3212,4702,0,0,0,8401,5721,0,4831,6557,0,6775,0,8192,0,0,7126,0,5607,0,6864,9813,6660,7610,4366,4091,7497,6043,5781,0,3468,5970,7906,0,7382,5062,7683,6911,0,6835,8049,0,7816,3961,5912,2775,8343,0,0,5584,0,5452,6431,5345,0,0,0,6879,4098,8087,5749,0,6330,6400,0,5060,7697,4672,6032
4296,0,6895,0,0,0,5418,0,0,0,9494,6012,0,4351,6101,6167,6160,0,4386,6325,0,0,0,8422,5845,6095,0,7069,7566,0,7666,5718,5620,6348,7414,0,0,0,6029,7625,4733,6115,7521,7771,8115,6838,0,6521,4419,0,0,0,3739,0,0,0,7095,8393,5593,0,0,4627,0,5448,4967,11009,7304,0,6791,3844,5764,5967,7046,7466,0,6444,0,7067,0,0,4845,0,5694,4551,0,7358,7989,8398,0,0,0,7048,6728,0,0,0,0,6682,6020,6679,0,0,4037,7614,3825,6994,5024,0,5299,4896,6595,5074,6584,5705,0,5001,4604,4632,0,0,5619,5569,0,0,0,0,0,5246,0,6718,6319,0,10594,4667,0,0,5661,7071,0,5600,6655,4495,5735,7158,0,0,5783,5470,7520,0,7996,4513,7804,0,9267,9174,6389,0,0,8107,0,0,5362,6628,0,0,4857,5209,4505,7996,0,0,0,4823,0,0,6664,0,4300,0,6768,5612,0,7071,5390,3524,8110,4618,0,0,4594,7260,6209,8068,4887,5471,7686,7776,5873,4516,4856,0,0,7114,4501,5380,0,5788,6151,0,6669,10105,0,6655,7190,0,7157,0,0,0,8525,7957,8102,7431,7484,5951,5363,0,0,0,5067,5092,8103,4115,4826,4492,5135,7632,4259,0,5542,6833,6904,0,8061,0,0,0,6311,6366,0,5134,0,0,0,4838,0,0,6660,6529,9869,5985,0,0,4821,5948,0,0,4809,6574,0,5348,0,0,5290,0,4524,7430,3230,6157,6884,0,7225,6763,0,5247,5788,0,8286,0,0,0,6369,8129,5370,0,0,6167,0,0,6946,0,4599,6146,7258,0,5180,7554,5555,6639,0,0,0,0,0,4526,6901,6620,6394,0,5324,0,0,7702,6553,4342,0,0,6686,0,7545,7850,7133,8333,6759,7747,0,0,6438,6684,0,5398,5425,4302,5886,5513,6013,6334,0,5772,5492,6234,6762,7909,4411,5786,7072,0,6319,4312,0,0,7794,10820,5095,0,5419,6719,7598,0,5625,6707,0,0,3308,4830,0,0,0,8665,5857,0,4961,6730,0,6969,0,0,0,0,7262,0,5743,0,7100,10155,6826,7833,4471,4203,7761,6210,5943,0,3553,6083,8113,0,7517,5259,7922,7032,0,7014,0,0,8188,4161,6167,2853,8677,0,0,5740,0,5579,6597,5498,0,0,0,7053,4203,0,5950,0,6571,6668,0,5184,7932,4807,6178
4484,0,7070,0,0,0,5641,0,0,0,0,6187,0,4454,6182,6307,6287,0,4521,6584,0,0,0,0,6021,6252,0,7251,7707,0,7869,5859,5755,6561,7631,0,0,0,6303,7831,4849,6363,7721,7941,0,7039,0,6702,4545,0,0,0,3811,0,0,0,7275,8587,5708,0,0,4750,0,5596,5096,11279,7487,0,6971,3957,5909,6136,7247,7630,0,6653,0,7256,0,0,5004,0,5807,4669,0,7561,0,8612,0,0,0,7343,6898,0,0,0,0,6869,6171,6836,0,0,4116,7846,3921,7163,5183,0,5442,5037,6780,5221,6766,5854,0,5121,4793,4757,0,0,5795,5702,0,0,0,0,0,5385,0,6903,6543,0,10994,4785,0,0,5827,7243,0,5752,6859,4623,5932,7297,0,0,5941,5691,7712,0,8295,4668,8021,0,9544,9393,6530,0,0,0,0,0,5500,6791,0,0,5002,5361,4622,0,0,0,0,5006,0,0,6846,0,4421,0,6938,5746,0,7176,5522,3619,0,4696,0,0,4709,7477,6427,0,5035,5705,7882,8030,5994,4638,5031,0,0,7291,4597,5531,0,5945,6402,0,6822,10323,0,6841,7402,0,7403,0,0,0,8743,8139,0,7684,7714,6073,5651,0,0,0,5277,5227,8316,4219,4955,4598,5250,7831,4371,0,5670,7123,7083,0,0,0,0,0,6507,6504,0,5304,0,0,0,5010,0,0,6821,6673,10146,6163,0,0,4955,6090,0,0,4941,6849,0,5545,0,0,5421,0,4638,7596,3332,6298,7109,0,7473,6962,0,5347,5969,0,8533,0,0,0,6553,8273,5536,0,0,6287,0,0,7166,0,4728,6422,7554,0,5371,7761,5702,7043,0,0,0,0,0,4645,7208,6757,6530,0,5490,0,0,7949,6706,4490,0,0,6951,0,7834,0,7329,8552,6943,7943,0,0,6577,6918,0,5539,5681,4416,6076,5659,6160,6537,0,5932,5694,6378,6984,8054,4548,5941,7268,0,6493,4424,0,0,8009,11086,5253,0,5548,6884,7758,0,5770,6856,0,0,3414,4975,0,0,0,8929,6307,0,5096,6930,0,7110,0,0,0,0,7465,0,5943,0,7283,10450,7095,0,4622,4320,7973,6379,6098,0,3655,6371,8313,0,7736,5375,8227,7240,0,7207,0,0,8421,4290,6352,2929,8895,0,0,5893,0,5793,6840,5675,0,0,0,7282,4313,0,6080,0,6740,6944,0,5347,8140,4940,6328
4599,0,7195,0,0,0,5793,0,0,0,0,6373,0,4601,6267,6407,6471,0,4775,6735,0,0,0,0,6166,6427,0,7439,7910,0,8004,5977,5962,6750,7838,0,0,0,6575,8045,4959,6504,7943,8154,0,7216,0,6887,4655,0,0,0,3936,0,0,0,7500,9020,5895,0,0,4905,0,5885,5225,11559,7679,0,7206,4068,6060,6218,7476,7852,0,6843,0,7459,0,0,5175,0,5921,4786,0,7763,0,8822,0,0,0,7617,7050,0,0,0,0,7085,6321,7054,0,0,4213,8003,4017,7336,5336,0,5581,5174,6969,5360,6919,5996,0,5306,4925,4883,0,0,5947,5829,0,0,0,0,0,5525,0,7105,6706,0,11332,4929,0,0,6018,7426,0,5903,7039,4747,6068,7527,0,0,6109,5803,7901,0,8533,4794,0,0,9849,9610,6771,0,0,0,0,0,5651,6974,0,0,5163,5530,4749,0,0,0,0,5112,0,0,7064,0,4540,0,7163,5910,0,7475,5691,3735,0,4863,0,0,4873,7665,6621,0,5175,5849,8129,8273,6122,4755,5154,0,0,7472,4755,5675,0,6137,6582,0,6963,10753,0,7026,7611,0,7599,0,0,0,9043,0,0,7860,7960,6301,5828,0,0,0,5391,5332,8575,4326,5100,4743,5380,8092,4497,0,0,7284,7268,0,0,0,0,0,6770,6735,0,5436,0,0,0,5172,0,0,7038,6843,10367,6345,0,0,5092,6304,0,0,5122,7223,0,5682,0,0,5571,0,4745,7770,3419,6439,7294,0,7721,7158,0,5573,6121,0,0,0,0,0,6714,8370,5664,0,0,6462,0,0,7356,0,4833,6611,7845,0,5510,8014,5882,7246,0,0,0,0,0,4755,7507,6926,6742,0,5640,0,0,0,6903,4617,0,0,7230,0,8027,0,7537,8720,7150,0,0,0,6726,7110,0,5715,5837,4539,6254,5801,6431,6663,0,6052,5814,6529,7185,0,4655,6083,7479,0,6734,4558,0,0,8223,11385,5393,0,5681,7049,7948,0,5907,6986,0,0,3496,5109,0,0,0,9192,6663,0,5321,7088,0,7369,0,0,0,0,7665,0,6177,0,7445,10763,7313,0,4810,4451,0,6570,6294,0,3781,6631,8517,0,7992,5561,0,7483,0,7400,0,0,0,4507,6511,3003,9159,0,0,6050,0,5928,7152,5806,0,0,0,7480,4409,0,6282,0,6939,7135,0,5443,8337,5071,6536
4715,0,7353,0,0,0,5919,0,0,0,0,6531,0,4697,6424,6618,6681,0,5085,6912,0,0,0,0,6324,6618,0,7679,8065,0,0,6136,6108,6900,8053,0,0,0,6838,0,5070,6698,8201,8325,0,7499,0,7087,4877,0,0,0,4080,0,0,0,7715,9269,6078,0,0,5034,0,6008,5347,11846,7852,0,7408,4213,6237,6305,7721,0,0,6987,0,7711,0,0,5299,0,6131,4905,0,7959,0,9008,0,0,0,7863,7190,0,0,0,0,7263,6471,7187,0,0,4328,8280,4114,7514,5442,0,5789,5313,7131,5484,7073,6173,0,5426,5105,5010,0,0,6059,5963,0,0,0,0,0,5666,0,7289,6858,0,11670,5064,0,0,6187,7697,0,6053,7260,4872,6207,7673,0,0,6266,6010,8201,0,8693,4913,0,0,10136,9824,6906,0,0,0,0,0,5815,7118,0,0,5322,5662,4870,0,0,0,0,5269,0,0,7249,0,4652,0,7340,6071,0,7746,5847,3842,0,4995,0,0,5009,7820,6733,0,5290,5966,8326,8465,6380,4869,5268,0,0,7717,4820,5840,0,6306,6803,0,7205,10988,0,7226,7820,0,7783,0,0,0,9250,0,0,8051,8177,6440,5947,0,0,0,5573,5448,8837,4459,5313,4940,5533,0,4619,0,0,7581,7456,0,0,0,0,0,6895,6869,0,5613,0,0,0,5275,0,0,7196,7039,10603,6489,0,0,5225,6491,0,0,5287,7521,0,5827,0,0,5708,0,4852,8052,3516,6640,7579,0,7973,7384,0,5762,6280,0,0,0,0,0,6890,0,5816,0,0,6587,0,0,7539,0,4924,6749,8133,0,5628,8200,6019,7434,0,0,0,0,0,4908,7809,7075,6929,0,5807,0,0,0,7095,4735,0,0,7409,0,8275,0,7829,8943,7326,0,0,0,6851,7315,0,5865,6081,4673,6434,5981,6585,6783,0,6183,5996,6777,7422,0,4762,6215,7670,0,6861,4671,0,0,0,11633,5529,0,5846,7231,8107,0,6049,7245,0,0,3591,5243,0,0,0,9455,6810,0,5445,7376,0,7530,0,0,0,0,7915,0,6363,0,7606,11066,7528,0,4925,4578,0,6765,6460,0,3891,6883,8728,0,8125,5663,0,7615,0,7587,0,0,0,4690,6695,3081,9352,0,0,6190,0,6057,7461,5931,0,0,0,7687,4513,0,6413,0,7118,7342,0,5550,8476,5203,6685
4840,0,7509,0,0,0,6061,0,0,0,0,6703,0,4789,6592,6795,6825,0,5329,7136,0,0,0,0,6471,6760,0,7886,0,0,0,6353,6258,7149,0,0,0,0,6966,0,5177,6853,0,0,0,7655,0,7231,5000,0,0,0,4186,0,0,0,7888,9561,6210,0,0,5174,0,6152,5461,12114,8045,0,7597,4348,6370,6418,7911,0,0,7225,0,7888,0,0,5435,0,6364,5103,0,8176,0,9384,0,0,0,0,7441,0,0,0,0,7452,6748,7618,0,0,4411,8492,4211,7756,5638,0,5963,5452,7322,5606,7336,6301,0,5603,5259,5138,0,0,6194,6206,0,0,0,0,0,5810,0,7487,7032,0,11919,5207,0,0,6302,7871,0,6202,7442,5003,6359,7902,0,0,6417,6118,8363,0,8964,5138,0,0,10434,10042,7046,0,0,0,0,0,5965,7398,0,0,5496,5863,5001,0,0,0,0,5419,0,0,7388,0,4775,0,7519,6221,0,7858,6048,3944,0,5150,0,0,5123,8008,7022,0,5431,6120,0,0,6600,4976,5430,0,0,7967,4921,5985,0,6536,7105,0,7414,11428,0,7412,8029,0,7980,0,0,0,9550,0,0,8344,0,6585,6049,0,0,0,5699,5558,9098,4564,5515,5091,5671,0,4758,0,0,7745,7649,0,0,0,0,0,7136,7053,0,5790,0,0,0,5433,0,0,7383,7191,10809,6619,0,0,5357,6681,0,0,5419,7802,0,5964,0,0,5879,0,4969,8222,3616,6847,7807,0,0,7573,0,5939,6435,0,0,0,0,0,7118,0,5973,0,0,6716,0,0,7712,0,5022,6925,8490,0,5790,0,6145,7592,0,0,0,0,0,5056,8009,7362,7154,0,5983,0,0,0,7296,4861,0,0,7573,0,0,0,8019,9113,7542,0,0,0,7003,7500,0,6047,6207,4804,6610,6135,6730,6963,0,6311,6105,7046,7653,0,4873,6371,7880,0,7061,4806,0,0,0,11980,5742,0,5965,7499,0,0,6193,7370,0,0,3693,5389,0,0,0,9717,7210,0,5552,7570,0,7792,0,0,0,0,8085,0,6511,0,7833,11285,7704,0,5077,4678,0,7056,6614,0,3984,7077,8946,0,0,5857,0,7831,0,7759,0,0,0,4804,6825,3237,9554,0,0,6329,0,6191,7720,6181,0,0,0,8070,4630,0,6613,0,7277,7497,0,5677,8680,5337,6850
4948,0,7717,0,0,0,6179,0,0,0,0,6823,0,4895,6747,6979,6952,0,5565,7299,0,0,0,0,6648,6917,0,8142,0,0,0,6513,6479,7336,0,0,0,0,7085,0,5323,7049,0,0,0,7914,0,7396,5126,0,0,0,4311,0,0,0,0,9749,6398,0,0,5318,0,6307,5574,12477,8236,0,7847,4446,6490,6605,8107,0,0,7379,0,8060,0,0,5674,0,6504,5220,0,0,0,9637,0,0,0,0,7579,0,0,0,0,7674,6901,7759,0,0,4502,0,4309,7937,5805,0,6113,5591,7458,5738,7492,6526,0,5723,5390,5275,0,0,6343,6347,0,0,0,0,0,5956,0,7679,7195,0,12156,5345,0,0,6464,8057,0,6365,7664,5139,6595,8041,0,0,6559,6258,8534,0,9298,5244,0,0,10719,10462,7277,0,0,0,0,0,6171,7653,0,0,5628,6037,5133,0,0,0,0,5588,0,0,7606,0,4889,0,7702,6393,0,8118,6175,4147,0,5268,0,0,5237,0,7262,0,5549,6253,0,0,6708,5117,5553,0,0,0,5012,6137,0,6656,7247,0,7585,11661,0,7649,8239,0,8175,0,0,0,9762,0,0,8520,0,6718,6160,0,0,0,5812,5657,9349,4666,5636,5228,6050,0,4899,0,0,7906,7807,0,0,0,0,0,7394,7217,0,5955,0,0,0,5663,0,0,7599,7322,10981,6819,0,0,5491,6856,0,0,5572,8080,0,6109,0,0,6051,0,5088,8419,3700,7062,8014,0,0,7776,0,6139,6589,0,0,0,0,0,7282,0,6103,0,0,6860,0,0,7960,0,5130,7110,8748,0,5909,0,6273,7822,0,0,0,0,0,5215,8156,7513,7285,0,6114,0,0,0,7488,4969,0,0,7731,0,0,0,8202,9328,7726,0,0,0,7138,7703,0,6196,6345,4936,6770,6262,6927,7106,0,6491,6231,7239,7790,0,4985,6528,8075,0,7242,4917,0,0,0,12229,5882,0,6131,7666,0,0,6335,7728,0,0,3775,5504,0,0,0,9980,7358,0,5705,7692,0,8019,0,0,0,0,8288,0,6708,0,8026,11639,7845,0,5268,4770,0,7238,6769,0,4087,7213,9173,0,0,5961,0,8156,0,7968,0,0,0,4948,6950,3313,9740,0,0,6561,0,6393,7878,6370,0,0,0,0,4783,0,6745,0,7519,7762,0,5794,8935,5472,7034
5079,0,7906,0,0,0,6333,0,0,0,0,6985,0,5002,6972,7274,7111,0,5798,7479,0,0,0,0,6769,7122,0,0,0,0,0,6637,6624,7509,0,0,0,0,7248,0,5470,7196,0,0,0,0,0,7564,5244,0,0,0,4422,0,0,0,0,10080,6603,0,0,5434,0,6444,5702,12798,8428,0,0,4529,6624,6774,8284,0,0,7529,0,8261,0,0,5807,0,6623,5337,0,0,0,9867,0,0,0,0,7816,0,0,0,0,7909,7049,7883,0,0,4582,0,4406,8193,5947,0,6260,5728,7731,5864,7631,6649,0,5902,5496,5399,0,0,6520,6477,0,0,0,0,0,6101,0,7864,7349,0,12620,5527,0,0,6605,0,0,6545,7844,5278,6765,8274,0,0,6699,6385,8698,0,9586,5334,0,0,11017,10693,7522,0,0,0,0,0,6356,7801,0,0,5816,6198,5271,0,0,0,0,5749,0,0,7811,0,5001,0,7972,6545,0,8362,6373,4227,0,5388,0,0,5399,0,7506,0,5685,6431,0,0,6857,5268,5690,0,0,0,5313,6301,0,6824,7379,0,7754,12086,0,7817,8450,0,8345,0,0,0,0,0,0,0,0,6927,6266,0,0,0,5922,5751,9558,4797,5752,5354,6180,0,5011,0,0,8065,7960,0,0,0,0,0,7513,7345,0,6096,0,0,0,5857,0,0,7758,7528,11320,7018,0,0,5627,7022,0,0,5697,0,0,6249,0,0,6218,0,5205,8673,3788,7187,8255,0,0,7949,0,6239,6735,0,0,0,0,0,7455,0,6261,0,0,6992,0,0,0,0,5231,7190,9055,0,6036,0,6425,8052,0,0,0,0,0,5322,8311,7661,7567,0,6334,0,0,0,7683,5074,0,0,8021,0,0,0,8421,9497,7934,0,0,0,7276,7890,0,6389,6519,5055,6955,6427,7104,7345,0,6653,6354,7416,8009,0,5125,6667,8285,0,7401,5051,0,0,0,12476,6013,0,6293,7831,0,0,6463,7925,0,0,3868,5669,0,0,0,10242,7756,0,5832,7824,0,8148,0,0,0,0,8464,0,6914,0,0,11915,8028,0,5390,4941,0,7440,6922,0,4179,7332,9433,0,0,6102,0,8420,0,0,0,0,0,5058,7143,3505,9920,0,0,6736,0,6669,8026,6527,0,0,0,0,4890,0,6949,0,7795,8008,0,5929,9201,5605,7204
5196,0,8166,0,0,0,6456,0,0,0,0,7175,0,5115,7161,7565,7275,0,6034,7658,0,0,0,0,6997,7281,0,0,0,0,0,6781,6774,7664,0,0,0,0,7363,0,5601,7329,0,0,0,0,0,7759,5367,0,0,0,4546,0,0,0,0,10263,6760,0,0,5597,0,6737,5825,13078,8942,0,0,4670,6824,6984,8523,0,0,7686,0,0,0,0,5946,0,6752,5455,0,0,0,10015,0,0,0,0,7973,0,0,0,0,8079,7198,0,0,0,4691,0,4503,8367,6095,0,6407,5870,7876,6001,7791,6820,0,6019,5607,5521,0,0,6665,6620,0,0,0,0,0,6242,0,0,7644,0,12902,5650,0,0,6724,0,0,6699,8001,5409,6989,8519,0,0,6834,6513,8870,0,9814,5495,0,0,11204,10908,7719,0,0,0,0,0,6532,7983,0,0,5974,6402,5405,0,0,0,0,5856,0,0,7941,0,5111,0,8172,6714,0,8517,6534,4348,0,5550,0,0,5548,0,7665,0,5821,6599,0,0,7110,5455,5815,0,0,0,5450,6440,0,7044,7511,0,7963,12319,0,8018,0,0,0,0,0,0,0,0,0,0,0,7056,6395,0,0,0,6048,5905,9793,4902,5901,5468,6310,0,5138,0,0,8353,8392,0,0,0,0,0,7638,7469,0,6222,0,0,0,6030,0,0,7924,7739,11502,7187,0,0,5758,7175,0,0,5902,0,0,6393,0,0,6366,0,5315,8843,3888,7306,8452,0,0,8166,0,6342,6883,0,0,0,0,0,7581,0,6421,0,0,7322,0,0,0,0,5343,7377,9341,0,6244,0,6635,0,0,0,0,0,0,5431,8460,7805,7709,0,6499,0,0,0,7850,5199,0,0,8179,0,0,0,8607,9714,8110,0,0,0,7452,8094,0,6531,6656,5168,7119,6566,7252,7505,0,6790,6485,7586,0,0,5258,6785,0,0,7592,5167,0,0,0,12724,6146,0,6434,0,0,0,6605,8161,0,0,3962,5800,0,0,0,10505,7902,0,5963,7886,0,8345,0,0,0,0,0,0,7112,0,0,12255,8261,0,5564,5064,0,7620,7098,0,4269,7463,9710,0,0,6278,0,8554,0,0,0,0,0,5188,7335,3718,10124,0,0,6864,0,6916,0,6653,0,0,0,0,5016,0,7083,0,0,8164,0,6060,9496,5736,7367
5306,0,8342,0,0,0,6685,0,0,0,0,7380,0,5240,7332,7728,7432,0,6271,7851,0,0,0,0,7136,7463,0,0,0,0,0,6897,6995,7849,0,0,0,0,7515,0,5738,7484,0,0,0,0,0,7948,5482,0,0,0,4657,0,0,0,0,10518,6884,0,0,5722,0,6869,5962,13526,9196,0,0,4771,7082,7105,0,0,0,0,0,0,0,0,6083,0,6891,5655,0,0,0,10209,0,0,0,0,8224,0,0,0,0,8289,7351,0,0,0,4800,0,4601,8541,6201,0,6603,6009,8114,6160,0,6982,0,6151,5733,5647,0,0,6796,6833,0,0,0,0,0,6380,0,0,7796,0,13181,5770,0,0,6863,0,0,6854,8203,5521,7206,8754,0,0,6978,6633,9011,0,10102,5770,0,0,11557,11123,7860,0,0,0,0,0,6652,8150,0,0,6088,6524,5528,0,0,0,0,5992,0,0,8140,0,5221,0,8371,6896,0,0,6674,4444,0,5706,0,0,5662,0,7938,0,5954,6749,0,0,7240,5573,5943,0,0,0,5591,6592,0,7240,7684,0,8147,12541,0,8223,0,0,0,0,0,0,0,0,0,0,0,7213,6715,0,0,0,6169,6016,0,5111,6063,5611,6627,0,5289,0,0,8651,8730,0,0,0,0,0,7766,7583,0,6396,0,0,0,6195,0,0,8089,7973,11799,7356,0,0,5891,7292,0,0,6071,0,0,6688,0,0,6490,0,5435,9021,3978,7493,0,0,0,0,0,6625,7006,0,0,0,0,0,7874,0,6569,0,0,7442,0,0,0,0,5451,7582,9661,0,6447,0,6860,0,0,0,0,0,0,5538,8813,7950,7828,0,6681,0,0,0,8021,5319,0,0,8407,0,0,0,8788,9945,8325,0,0,0,7628,0,0,6726,6796,5304,7247,6721,7394,7630,0,6983,6611,7738,0,0,5368,6905,0,0,7782,5301,0,0,0,12928,6283,0,6625,0,0,0,6747,8505,0,0,4059,5939,0,0,0,10767,8067,0,6073,8067,0,8583,0,0,0,0,0,0,7274,0,0,12576,8420,0,5671,5162,0,7798,7243,0,4378,7586,9972,0,0,6471,0,8805,0,0,0,0,0,5348,7498,3836,10412,0,0,7023,0,7044,0,6776,0,0,0,0,5133,0,7283,0,0,0,0,6192,9758,5867,7520
5421,0,0,0,0,0,6835,0,0,0,0,7523,0,5339,7504,7955,7651,0,6506,8033,0,0,0,0,7324,7692,0,0,0,0,0,7060,7223,8005,0,0,0,0,7846,0,5854,7639,0,0,0,0,0,8135,5606,0,0,0,4753,0,0,0,0,10814,7011,0,0,5846,0,7001,6087,13899,9376,0,0,4881,7251,7267,0,0,0,0,0,0,0,0,6209,0,7091,5772,0,0,0,10418,0,0,0,0,0,0,0,0,0,8493,7503,0,0,0,4888,0,4699,0,6317,0,6786,6150,8251,6298,0,7148,0,6316,5907,5784,0,0,6943,6967,0,0,0,0,0,6521,0,0,7984,0,13467,5944,0,0,7016,0,0,7009,8383,5656,7404,8877,0,0,7101,6795,9245,0,10333,5901,0,0,11844,11338,0,0,0,0,0,0,6805,0,0,0,6248,6737,5652,0,0,0,0,6196,0,0,8317,0,5330,0,8559,7075,0,0,6860,4530,0,5860,0,0,5774,0,8147,0,6080,6895,0,0,7515,5796,6075,0,0,0,5796,6756,0,7384,7914,0,8348,12965,0,0,0,0,0,0,0,0,0,0,0,0,0,7441,6924,0,0,0,6318,6113,0,5207,6223,5735,6767,0,5425,0,0,8814,0,0,0,0,0,0,7959,7703,0,6570,0,0,0,6396,0,0,0,8107,12029,7480,0,0,6026,7464,0,0,6232,0,0,6828,0,0,6609,0,5553,9293,4069,7676,0,0,0,0,0,6780,7193,0,0,0,0,0,0,0,6717,0,0,7579,0,0,0,0,5551,7779,0,0,6558,0,7009,0,0,0,0,0,0,5648,8972,8096,7976,0,6859,0,0,0,8241,5425,0,0,8640,0,0,0,9052,10118,0,0,0,0,7788,0,0,6883,6913,5431,7396,6885,7608,7782,0,7134,6759,7903,0,0,5480,7025,0,0,7963,5410,0,0,0,13307,6414,0,6766,0,0,0,6899,0,0,0,4473,6059,0,0,0,11031,8187,0,6229,8256,0,8784,0,0,0,0,0,0,7425,0,0,12793,0,0,5776,5287,0,7952,7396,0,4470,7700,10256,0,0,6639,0,8933,0,0,0,0,0,5511,7703,3906,10661,0,0,7172,0,7204,0,6899,0,0,0,0,5244,0,7413,0,0,0,0,6310,10025,6002,7702
5530,0,0,0,0,0,6956,0,0,0,0,7660,0,5454,7720,8139,7823,0,6739,8181,0,0,0,0,7504,7864,0,0,0,0,0,7228,7388,8228,0,0,0,0,7999,0,5973,7857,0,0,0,0,0,0,5719,0,0,0,4852,0,0,0,0,10987,7123,0,0,5968,0,7213,6230,14197,9607,0,0,4987,7400,7385,0,0,0,0,0,0,0,0,6324,0,7223,5890,0,0,0,10603,0,0,0,0,0,0,0,0,0,8683,7651,0,0,0,5010,0,4796,0,6456,0,6941,6289,8378,6441,0,7313,0,6441,6016,5962,0,0,7060,7217,0,0,0,0,0,6662,0,0,8155,0,13639,6052,0,0,7142,0,0,7206,8597,5793,7623,9124,0,0,7241,6948,9369,0,10579,6016,0,0,12161,11552,0,0,0,0,0,0,6986,0,0,0,6374,6920,5785,0,0,0,0,6326,0,0,8495,0,5442,0,8772,7219,0,0,6986,4635,0,6112,0,0,5937,0,8369,0,6232,7006,0,0,7640,6005,6241,0,0,0,5905,6899,0,7541,8037,0,0,13199,0,0,0,0,0,0,0,0,0,0,0,0,0,7702,7060,0,0,0,6441,6212,0,5347,6338,5855,6905,0,5542,0,0,9106,0,0,0,0,0,0,0,7813,0,6699,0,0,0,6565,0,0,0,8335,12363,7738,0,0,6160,7621,0,0,6387,0,0,6982,0,0,6726,0,5670,9465,4161,7834,0,0,0,0,0,6978,7388,0,0,0,0,0,0,0,6893,0,0,7892,0,0,0,0,5662,7965,0,0,6696,0,7169,0,0,0,0,0,0,5751,9169,8242,8104,0,7001,0,0,0,8436,5517,0,0,8802,0,0,0,9249,10338,0,0,0,0,7971,0,0,7065,7114,5547,7545,7026,7755,7893,0,7266,6928,8062,0,0,5600,7144,0,0,8140,5545,0,0,0,13521,6538,0,6919,0,0,0,7047,0,0,0,4600,6213,0,0,0,11295,8336,0,6448,0,0,8988,0,0,0,0,0,0,7622,0,0,13052,0,0,5951,5422,0,8085,7574,0,4603,7922,10529,0,0,6774,0,9067,0,0,0,0,0,5663,7833,3986,10913,0,0,7378,0,7438,0,7109,0,0,0,0,5372,0,7615,0,0,0,0,6456,10235,6138,7906
5646,0,0,0,0,0,7094,0,0,0,0,7835,0,5556,7909,8388,8027,0,6973,0,0,0,0,0,7633,8020,0,0,0,0,0,7385,7523,8379,0,0,0,0,8194,0,6099,8027,0,0,0,0,0,0,5845,0,0,0,4997,0,0,0,0,11208,7237,0,0,6081,0,7345,6360,14484,9833,0,0,5079,7584,7552,0,0,0,0,0,0,0,0,6445,0,7425,6009,0,0,0,10876,0,0,0,0,0,0,0,0,0,8854,7801,0,0,0,5115,0,4894,0,6580,0,7086,6425,0,6582,0,7438,0,6621,6141,6104,0,0,7239,7386,0,0,0,0,0,6804,0,0,8315,0,13862,6164,0,0,7284,0,0,7356,0,5926,7810,9374,0,0,7380,7093,9511,0,10766,6195,0,0,12451,11765,0,0,0,0,0,0,7197,0,0,0,6538,7090,5923,0,0,0,0,6451,0,0,8675,0,5543,0,8942,7361,0,0,7127,4748,0,6227,0,0,6072,0,0,0,6446,7118,0,0,7753,6166,6403,0,0,0,6134,7052,0,7651,0,0,0,13426,0,0,0,0,0,0,0,0,0,0,0,0,0,7905,7169,0,0,0,6689,6375,0,5477,6458,5967,7062,0,5664,0,0,9268,0,0,0,0,0,0,0,7922,0,6871,0,0,0,6695,0,0,0,8488,12623,7958,0,0,6297,7858,0,0,6511,0,0,7270,0,0,6906,0,5788,9763,4249,7956,0,0,0,0,0,7134,7563,0,0,0,0,0,0,0,7036,0,0,8110,0,0,0,0,5793,8133,0,0,6798,0,7321,0,0,0,0,0,0,5864,9304,8389,8307,0,7149,0,0,0,0,5618,0,0,8967,0,0,0,9507,10572,0,0,0,0,8096,0,0,7220,7284,5661,7764,7157,7948,0,0,7390,7088,8214,0,0,5735,7267,0,0,8318,5661,0,0,0,13861,6662,0,7086,0,0,0,7208,0,0,0,4697,6326,0,0,0,11559,8511,0,6581,0,0,9192,0,0,0,0,0,0,7758,0,0,13397,0,0,6075,5554,0,8216,7717,0,4697,8100,10797,0,0,6917,0,9203,0,0,0,0,0,5852,7975,4063,11102,0,0,7506,0,7626,0,7265,0,0,0,0,5472,0,7747,0,0,0,0,6588,10478,6270,8074
5758,0,0,0,0,0,7225,0,0,0,0,8016,0,5693,8083,0,0,0,7207,0,0,0,0,0,7792,0,0,0,0,0,0,7588,7658,8531,0,0,0,0,8269,0,6209,0,0,0,0,0,0,0,5955,0,0,0,5138,0,0,0,0,11409,7415,0,0,6196,0,7478,6550,14758,10050,0,0,5198,7731,7761,0,0,0,0,0,0,0,0,6567,0,7585,6206,0,0,0,11071,0,0,0,0,0,0,0,0,0,9056,7950,0,0,0,5218,0,4992,0,6756,0,7227,6568,0,6766,0,7684,0,6736,6260,6223,0,0,7502,7536,0,0,0,0,0,6947,0,0,0,0,14227,6294,0,0,7395,0,0,7509,0,6056,8055,9619,0,0,7512,7225,9708,0,11048,6354,0,0,12749,11980,0,0,0,0,0,0,7453,0,0,0,6711,7279,6069,0,0,0,0,6591,0,0,8832,0,5655,0,9110,7530,0,0,7280,4867,0,6425,0,0,6186,0,0,0,6664,7246,0,0,8007,6297,6523,0,0,0,6208,7213,0,7837,0,0,0,13850,0,0,0,0,0,0,0,0,0,0,0,0,0,0,7262,0,0,0,6897,6489,0,5591,6620,6129,7219,0,5781,0,0,9561,0,0,0,0,0,0,0,8029,0,6999,0,0,0,6876,0,0,0,8664,12839,8140,0,0,6428,7987,0,0,6655,0,0,7411,0,0,7138,0,5905,9934,4345,8108,0,0,0,0,0,7325,7718,0,0,0,0,0,0,0,7215,0,0,0,0,0,0,0,5905,0,0,0,6952,0,7487,0,0,0,0,0,0,5967,9443,8536,0,0,7283,0,0,0,0,5718,0,0,9190,0,0,0,9717,10744,0,0,0,0,8226,0,0,7413,7398,5767,7968,7299,8109,0,0,7531,7210,8321,0,0,5861,7392,0,0,8502,5796,0,0,0,14090,6819,0,7268,0,0,0,7350,0,0,0,4788,6488,0,0,0,11827,8668,0,6757,0,0,9382,0,0,0,0,0,0,7897,0,0,13703,0,0,6193,5747,0,8362,7926,0,4806,8279,11034,0,0,7115,0,9330,0,0,0,0,0,5968,8198,4146,11390,0,0,7734,0,7773,0,7391,0,0,0,0,5569,0,7950,0,0,0,0,6713,10668,6401,8313
5874,0,0,0,0,0,7374,0,0,0,0,0,0,5827,8239,0,0,0,7351,0,0,0,0,0,7979,0,0,0,0,0,0,7724,7797,8671,0,0,0,0,0,0,6320,0,0,0,0,0,0,0,6083,0,0,0,5240,0,0,0,0,11685,7627,0,0,6317,0,7601,6668,15011,10293,0,0,5325,7876,7873,0,0,0,0,0,0,0,0,6700,0,7785,6323,0,0,0,11324,0,0,0,0,0,0,0,0,0,9264,8102,0,0,0,5307,0,5090,0,6919,0,7366,6709,0,6936,0,7886,0,6859,6369,6349,0,0,7652,7675,0,0,0,0,0,7088,0,0,0,0,14505,6406,0,0,7515,0,0,7659,0,6278,8296,9860,0,0,7644,7459,9885,0,11230,6491,0,0,13031,12189,0,0,0,0,0,0,7632,0,0,0,6929,7398,6254,0,0,0,0,6741,0,0,8993,0,5768,0,9360,7707,0,0,7427,4979,0,6576,0,0,6301,0,0,0,6786,7457,0,0,0,6445,6650,0,0,0,6348,7352,0,7958,0,0,0,14080,0,0,0,0,0,0,0,0,0,0,0,0,0,0,7365,0,0,0,7018,6654,0,5746,6788,6255,7382,0,5916,0,0,9726,0,0,0,0,0,0,0,8734,0,7125,0,0,0,7035,0,0,0,8845,13482,0,0,0,6566,8183,0,0,6827,0,0,7676,0,0,7276,0,6048,10230,4439,8232,0,0,0,0,0,7444,7870,0,0,0,0,0,0,0,7405,0,0,0,0,0,0,0,6035,0,0,0,7063,0,7673,0,0,0,0,0,0,6082,9577,8683,0,0,7435,0,0,0,0,5836,0,0,9356,0,0,0,9961,10960,0,0,0,0,8354,0,0,7567,7514,5864,0,7473,8302,0,0,7666,7371,8511,0,0,5971,7528,0,0,8698,5906,0,0,0,14388,7017,0,7394,0,0,0,7499,0,0,0,4973,6601,0,0,0,12090,8856,0,6908,0,0,9547,0,0,0,0,0,0,8042,0,0,14072,0,0,6360,5876,0,8587,8140,0,4924,8443,11285,0,0,7290,0,9503,0,0,0,0,0,6075,8412,4229,11663,0,0,7883,0,7946,0,7514,0,0,0,0,5748,0,8153,0,0,0,0,6861,10901,6535,0
5998,0,0,0,0,0,7490,0,0,0,0,0,0,5927,0,0,0,0,7447,0,0,0,0,0,8172,0,0,0,0,0,0,7980,7992,8887,0,0,0,0,0,0,6428,0,0,0,0,0,0,0,6191,0,0,0,5320,0,0,0,0,11956,7817,0,0,6449,0,7752,6786,15262,10534,0,0,5413,8009,0,0,0,0,0,0,0,0,0,6838,0,7902,6440,0,0,0,11562,0,0,0,0,0,0,0,0,0,9470,8395,0,0,0,5412,0,5188,0,7061,0,7506,6847,0,7075,0,0,0,7033,6476,6475,0,0,7794,7806,0,0,0,0,0,7229,0,0,0,0,14860,6542,0,0,7692,0,0,7811,0,6421,0,9999,0,0,7771,7582,10050,0,11529,6681,0,0,13330,12390,0,0,0,0,0,0,7800,0,0,0,7048,7543,6366,0,0,0,0,6852,0,0,9164,0,5895,0,9570,7840,0,0,7586,5086,0,6701,0,0,6459,0,0,0,6902,7638,0,0,0,6588,7038,0,0,0,6423,7514,0,8112,0,0,0,14300,0,0,0,0,0,0,0,0,0,0,0,0,0,0,7473,0,0,0,7172,6831,0,5853,6925,6389,7518,0,6042,0,0,10019,0,0,0,0,0,0,0,8895,0,7297,0,0,0,7210,0,0,0,9043,13753,0,0,0,6695,8371,0,0,6962,0,0,7803,0,0,7436,0,6183,10396,4524,0,0,0,0,0,0,7599,8019,0,0,0,0,0,0,0,7598,0,0,0,0,0,0,0,6190,0,0,0,7185,0,7856,0,0,0,0,0,0,6191,9711,8833,0,0,7586,0,0,0,0,5973,0,0,9504,0,0,0,10182,11159,0,0,0,0,0,0,0,7741,7657,5983,0,7629,8461,0,0,7853,7610,8742,0,0,6085,7691,0,0,8871,5998,0,0,0,14651,7185,0,7559,0,0,0,7641,0,0,0,5062,6729,0,0,0,12352,9013,0,7080,0,0,9775,0,0,0,0,0,0,0,0,0,14416,0,0,6535,6001,0,8776,8308,0,5035,8613,11428,0,0,7493,0,9674,0,0,0,0,0,6178,8589,4316,11902,0,0,8018,0,0,0,7684,0,0,0,0,5880,0,0,0,0,0,0,7027,11101,6671,0
6112,0,0,0,0,0,7645,0,0,0,0,0,0,6025,0,0,0,0,7592,0,0,0,0,0,8315,0,0,0,0,0,0,8131,8182,9105,0,0,0,0,0,0,6581,0,0,0,0,0,0,0,6321,0,0,0,5399,0,0,0,0,12232,7936,0,0,6577,0,7910,6900,15662,10764,0,0,5535,8193,0,0,0,0,0,0,0,0,0,6973,0,8118,6561,0,0,0,11701,0,0,0,0,0,0,0,0,0,9655,8550,0,0,0,5495,0,5287,0,7210,0,7647,6987,0,7196,0,0,0,7155,6585,6601,0,0,7939,8021,0,0,0,0,0,7374,0,0,0,0,15127,6688,0,0,7852,0,0,7961,0,6544,0,10220,0,0,7950,7718,10260,0,11684,6944,0,0,13619,12598,0,0,0,0,0,0,7983,0,0,0,7168,7725,6509,0,0,0,0,7005,0,0,9392,0,6007,0,9734,7970,0,0,7717,5187,0,6779,0,0,6618,0,0,0,7092,7755,0,0,0,6714,7149,0,0,0,6560,7675,0,8215,0,0,0,14719,0,0,0,0,0,0,0,0,0,0,0,0,0,0,7582,0,0,0,7312,6957,0,5953,7045,6494,7678,0,6160,0,0,10180,0,0,0,0,0,0,0,9093,0,7426,0,0,0,7323,0,0,0,9249,14346,0,0,0,6840,8566,0,0,7076,0,0,7924,0,0,7570,0,6316,10576,4623,0,0,0,0,0,0,7726,0,0,0,0,0,0,0,0,7776,0,0,0,0,0,0,0,6305,0,0,0,7307,0,8013,0,0,0,0,0,0,6336,9845,9063,0,0,7755,0,0,0,0,6090,0,0,9768,0,0,0,10391,11354,0,0,0,0,0,0,0,7900,7861,6095,0,7766,8665,0,0,8010,7751,8925,0,0,6198,7832,0,0,9009,6129,0,0,0,14894,7316,0,7715,0,0,0,7794,0,0,0,5151,6842,0,0,0,12616,9200,0,7206,0,0,10002,0,0,0,0,0,0,0,0,0,14616,0,0,6652,6117,0,8942,8527,0,5147,8847,11765,0,0,7645,0,9968,0,0,0,0,0,6288,8805,4403,12108,0,0,8151,0,0,0,7789,0,0,0,0,0,0,0,0,0,0,0,7166,11314,6802,0
6227,0,0,0,0,0,7777,0,0,0,0,0,0,6118,0,0,0,0,7704,0,0,0,0,0,8451,0,0,0,0,0,0,8300,0,9322,0,0,0,0,0,0,6714,0,0,0,0,0,0,0,6426,0,0,0,5564,0,0,0,0,12416,8116,0,0,6701,0,8080,7017,16064,10929,0,0,5639,8313,0,0,0,0,0,0,0,0,0,7126,0,8371,6764,0,0,0,11953,0,0,0,0,0,0,0,0,0,9866,8701,0,0,0,5570,0,5386,0,7332,0,7877,7125,0,7338,0,0,0,7288,6687,6730,0,0,0,8166,0,0,0,0,0,7521,0,0,0,0,15471,6808,0,0,8022,0,0,8122,0,6679,0,10356,0,0,8090,7859,10350,0,11893,7055,0,0,13916,13002,0,0,0,0,0,0,8113,0,0,0,7374,0,6619,0,0,0,0,7171,0,0,9577,0,6169,0,9926,8136,0,0,7910,5286,0,6910,0,0,6723,0,0,0,7226,7888,0,0,0,6886,7344,0,0,0,6680,7812,0,0,0,0,0,14943,0,0,0,0,0,0,0,0,0,0,0,0,0,0,7692,0,0,0,7436,7060,0,6067,7177,6624,7838,0,6276,0,0,10473,0,0,0,0,0,0,0,9401,0,7599,0,0,0,7500,0,0,0,9391,14533,0,0,0,6963,8769,0,0,7251,0,0,8045,0,0,7707,0,6447,10840,4718,0,0,0,0,0,0,7867,0,0,0,0,0,0,0,0,7951,0,0,0,0,0,0,0,6458,0,0,0,7451,0,8150,0,0,0,0,0,0,6485,9983,9397,0,0,7923,0,0,0,0,6211,0,0,9926,0,0,0,10552,11529,0,0,0,0,0,0,0,0,0,6199,0,7989,8812,0,0,0,0,9086,0,0,6378,7959,0,0,9261,6285,0,0,0,15225,7462,0,7851,0,0,0,7946,0,0,0,5242,6981,0,0,0,12880,9350,0,7326,0,0,10300,0,0,0,0,0,0,0,0,0,14904,0,0,6791,6325,0,9074,8702,0,5240,9050,11972,0,0,7750,0,10205,0,0,0,0,0,6393,8953,4491,12305,0,0,8348,0,0,0,7961,0,0,0,0,0,0,0,0,0,0,0,7284,11541,6934,0
6337,0,0,0,0,0,7980,0,0,0,0,0,0,6250,0,0,0,0,7931,0,0,0,0,0,8571,0,0,0,0,0,0,0,0,9488,0,0,0,0,0,0,6850,0,0,0,0,0,0,0,6548,0,0,0,5646,0,0,0,0,12686,0,0,0,6824,0,8204,7136,16465,11166,0,0,5763,8441,0,0,0,0,0,0,0,0,0,7304,0,0,6877,0,0,0,12132,0,0,0,0,0,0,0,0,0,10081,8851,0,0,0,5653,0,5485,0,7438,0,8035,7265,0,7508,0,0,0,7453,6798,6871,0,0,0,8301,0,0,0,0,0,7665,0,0,0,0,15744,6971,0,0,8141,0,0,8302,0,6810,0,10592,0,0,8236,0,10518,0,12121,7166,0,0,14203,13241,0,0,0,0,0,0,8237,0,0,0,7503,0,6806,0,0,0,0,7307,0,0,9737,0,6326,0,10104,0,0,0,8059,5392,0,6990,0,0,6891,0,0,0,7390,8087,0,0,0,7023,7477,0,0,0,6854,7961,0,0,0,0,0,15165,0,0,0,0,0,0,0,0,0,0,0,0,0,0,7801,0,0,0,7620,7148,0,6164,7359,6733,8059,0,6399,0,0,10633,0,0,0,0,0,0,0,9759,0,7770,0,0,0,7608,0,0,0,9583,14816,0,0,0,7107,8984,0,0,7404,0,0,8275,0,0,7823,0,6576,11008,4811,0,0,0,0,0,0,8050,0,0,0,0,0,0,0,0,8075,0,0,0,0,0,0,0,6657,0,0,0,7576,0,8348,0,0,0,0,0,0,6599,10120,9698,0,0,8094,0,0,0,0,6345,0,0,10080,0,0,0,10751,11743,0,0,0,0,0,0,0,0,0,6352,0,8133,9059,0,0,0,0,9263,0,0,6492,8144,0,0,9456,6402,0,0,0,15478,7592,0,8007,0,0,0,8095,0,0,0,5332,7108,0,0,0,13144,9543,0,7443,0,0,10496,0,0,0,0,0,0,0,0,0,15240,0,0,6915,6429,0,9205,8898,0,5373,9168,12178,0,0,7914,0,10444,0,0,0,0,0,6500,9137,4579,12490,0,0,8536,0,0,0,8078,0,0,0,0,0,0,0,0,0,0,0,7431,11746,7066,0
6445,0,0,0,0,0,8136,0,0,0,0,0,0,6367,0,0,0,0,0,0,0,0,0,0,8734,0,0,0,0,0,0,0,0,9671,0,0,0,0,0,0,6969,0,0,0,0,0,0,0,6669,0,0,0,5737,0,0,0,0,12890,0,0,0,6949,0,8358,7248,16695,11312,0,0,5879,8581,0,0,0,0,0,0,0,0,0,7430,0,0,6993,0,0,0,12337,0,0,0,0,0,0,0,0,0,10361,9000,0,0,0,5745,0,5584,0,7618,0,8183,7404,0,7632,0,0,0,7571,6914,7010,0,0,0,8420,0,0,0,0,0,7806,0,0,0,0,16090,7075,0,0,8335,0,0,8454,0,6942,0,10733,0,0,8378,0,10714,0,12451,7274,0,0,14500,13467,0,0,0,0,0,0,8430,0,0,0,7617,0,6937,0,0,0,0,7382,0,0,9929,0,6462,0,10353,0,0,0,8185,5474,0,7190,0,0,7029,0,0,0,7615,8230,0,0,0,7188,7599,0,0,0,6978,0,0,0,0,0,0,15604,0,0,0,0,0,0,0,0,0,0,0,0,0,0,7911,0,0,0,7778,7241,0,6304,7544,6860,8189,0,6535,0,0,10927,0,0,0,0,0,0,0,9920,0,7902,0,0,0,7720,0,0,0,9743,15161,0,0,0,7230,9152,0,0,7614,0,0,8431,0,0,7944,0,6707,11181,4910,0,0,0,0,0,0,8209,0,0,0,0,0,0,0,0,8234,0,0,0,0,0,0,0,6789,0,0,0,7762,0,8544,0,0,0,0,0,0,6708,10266,9967,0,0,8290,0,0,0,0,6476,0,0,10301,0,0,0,10966,11913,0,0,0,0,0,0,0,0,0,6486,0,8289,9280,0,0,0,0,9449,0,0,6607,8320,0,0,9651,6537,0,0,0,15697,7715,0,8166,0,0,0,8261,0,0,0,5424,7291,0,0,0,13405,9704,0,7598,0,0,10674,0,0,0,0,0,0,0,0,0,15456,0,0,7028,6528,0,9383,9032,0,5473,9291,12388,0,0,0,0,10677,0,0,0,0,0,6611,9419,4668,12744,0,0,0,0,0,0,8298,0,0,0,0,0,0,0,0,0,0,0,7543,12051,7198,0
6555,0,0,0,0,0,0,0,0,0,0,0,0,6475,0,0,0,0,0,0,0,0,0,0,8901,0,0,0,0,0,0,0,0,9822,0,0,0,0,0,0,7082,0,0,0,0,0,0,0,6799,0,0,0,5829,0,0,0,0,13087,0,0,0,7069,0,8613,7354,16997,11444,0,0,5977,8749,0,0,0,0,0,0,0,0,0,7550,0,0,7112,0,0,0,12597,0,0,0,0,0,0,0,0,0,10510,9149,0,0,0,5889,0,5683,0,7780,0,8326,7546,0,7766,0,0,0,7694,7027,7122,0,0,0,0,0,0,0,0,0,7947,0,0,0,0,16319,7204,0,0,8482,0,0,8610,0,7073,0,10969,0,0,8588,0,11014,0,12662,7535,0,0,14782,13867,0,0,0,0,0,0,8605,0,0,0,7823,0,7071,0,0,0,0,7558,0,0,10128,0,6580,0,10527,0,0,0,8353,5569,0,7313,0,0,7140,0,0,0,7746,8364,0,0,0,7362,7728,0,0,0,7051,0,0,0,0,0,0,0,0,0,0,0,0,0,0,0,0,0,0,0,0,0,8020,0,0,0,7915,7341,0,6424,7718,7029,0,0,6653,0,0,11089,0,0,0,0,0,0,0,10159,0,8027,0,0,0,7872,0,0,0,9891,15413,0,0,0,7364,9278,0,0,7737,0,0,8621,0,0,8079,0,6833,11458,4988,0,0,0,0,0,0,8327,0,0,0,0,0,0,0,0,0,0,0,0,0,0,0,0,6902,0,0,0,7880,0,8688,0,0,0,0,0,0,6806,10413,10155,0,0,8427,0,0,0,0,6598,0,0,10443,0,0,0,11130,12134,0,0,0,0,0,0,0,0,0,6602,0,8458,9441,0,0,0,0,9621,0,0,6719,8489,0,0,9831,6650,0,0,0,16072,7839,0,0,0,0,0,8413,0,0,0,5514,7417,0,0,0,13667,9890,0,7797,0,0,0,0,0,0,0,0,0,0,0,0,15811,0,0,7155,6637,0,9553,9167,0,5629,9519,12622,0,0,0,0,10893,0,0,0,0,0,6721,9604,4756,12915,0,0,0,0,0,0,8476,0,0,0,0,0,0,0,0,0,0,0,7653,12279,7332,0
6704,0,0,0,0,0,0,0,0,0,0,0,0,6569,0,0,0,0,0,0,0,0,0,0,9067,0,0,0,0,0,0,0,0,10067,0,0,0,0,0,0,7215,0,0,0,0,0,0,0,6900,0,0,0,5979,0,0,0,0,13422,0,0,0,7191,0,8745,7471,0,11620,0,0,6087,8965,0,0,0,0,0,0,0,0,0,7700,0,0,7309,0,0,0,12885,0,0,0,0,0,0,0,0,0,10663,9296,0,0,0,5957,0,5782,0,7983,0,0,7682,0,7896,0,0,0,7865,7140,7241,0,0,0,0,0,0,0,0,0,8087,0,0,0,0,0,7365,0,0,8607,0,0,8766,0,7194,0,11105,0,0,8809,0,11186,0,13016,7689,0,0,15081,14098,0,0,0,0,0,0,8763,0,0,0,7951,0,7199,0,0,0,0,7736,0,0,10302,0,6699,0,10771,0,0,0,8513,5674,0,7435,0,0,7249,0,0,0,7881,8533,0,0,0,7513,7844,0,0,0,7275,0,0,0,0,0,0,0,0,0,0,0,0,0,0,0,0,0,0,0,0,0,8164,0,0,0,8054,7451,0,6531,7835,7157,0,0,6775,0,0,11247,0,0,0,0,0,0,0,10275,0,8200,0,0,0,8011,0,0,0,10026,0,0,0,0,7496,9417,0,0,7852,0,0,8786,0,0,8239,0,6962,11622,5076,0,0,0,0,0,0,8438,0,0,0,0,0,0,0,0,0,0,0,0,0,0,0,0,7060,0,0,0,7976,0,8898,0,0,0,0,0,0,6926,10565,10304,0,0,0,0,0,0,0,6724,0,0,10667,0,0,0,11359,12364,0,0,0,0,0,0,0,0,0,6712,0,8636,9593,0,0,0,0,9804,0,0,6830,0,0,0,10033,6784,0,0,0,16399,8010,0,0,0,0,0,0,0,0,0,5602,7583,0,0,0,13930,10042,0,7984,0,0,0,0,0,0,0,0,0,0,0,0,16030,0,0,7282,6786,0,9713,9403,0,5736,9699,12873,0,0,0,0,11016,0,0,0,0,0,6871,9736,4845,13278,0,0,0,0,0,0,8700,0,0,0,0,0,0,0,0,0,0,0,7780,12507,7467,0
6842,0,0,0,0,0,0,0,0,0,0,0,0,6679,0,0,0,0,0,0,0,0,0,0,9273,0,0,0,0,0,0,0,0,10418,0,0,0,0,0,0,7340,0,0,0,0,0,0,0,7024,0,0,0,6065,0,0,0,0,13664,0,0,0,7314,0,8936,7622,0,11806,0,0,6192,9158,0,0,0,0,0,0,0,0,0,7826,0,0,7427,0,0,0,13104,0,0,0,0,0,0,0,0,0,10853,9442,0,0,0,6070,0,5880,0,8111,0,0,7825,0,8020,0,0,0,7987,7245,7367,0,0,0,0,0,0,0,0,0,8228,0,0,0,0,0,7473,0,0,8721,0,0,8964,0,7319,0,11341,0,0,8948,0,11515,0,13219,7797,0,0,15373,14318,0,0,0,0,0,0,8911,0,0,0,8073,0,7335,0,0,0,0,7842,0,0,10478,0,6810,0,10911,0,0,0,8690,5769,0,7597,0,0,7363,0,0,0,8008,8693,0,0,0,7630,7973,0,0,0,7395,0,0,0,0,0,0,0,0,0,0,0,0,0,0,0,0,0,0,0,0,0,8490,0,0,0,8211,7582,0,6631,8016,7286,0,0,6916,0,0,11537,0,0,0,0,0,0,0,10486,0,8372,0,0,0,8191,0,0,0,10204,0,0,0,0,7630,9583,0,0,8065,0,0,8910,0,0,8354,0,7091,11794,5171,0,0,0,0,0,0,0,0,0,0,0,0,0,0,0,0,0,0,0,0,0,0,0,7181,0,0,0,8073,0,9086,0,0,0,0,0,0,7039,10712,10588,0,0,0,0,0,0,0,6823,0,0,10846,0,0,0,11529,12543,0,0,0,0,0,0,0,0,0,6826,0,8783,9809,0,0,0,0,9962,0,0,6943,0,0,0,10266,6894,0,0,0,0,8152,0,0,0,0,0,0,0,0,0,5699,7705,0,0,0,14194,10249,0,8111,0,0,0,0,0,0,0,0,0,0,0,0,16258,0,0,7434,6942,0,9973,9553,0,5849,9815,13031,0,0,0,0,11171,0,0,0,0,0,7019,9926,4934,13468,0,0,0,0,0,0,8854,0,0,0,0,0,0,0,0,0,0,0,7960,12727,7599,0
6971,0,0,0,0,0,0,0,0,0,0,0,0,6819,0,0,0,0,0,0,0,0,0,0,9415,0,0,0,0,0,0,0,0,10655,0,0,0,0,0,0,7435,0,0,0,0,0,0,0,7138,0,0,0,6162,0,0,0,0,13897,0,0,0,7436,0,0,7766,0,11940,0,0,6313,9327,0,0,0,0,0,0,0,0,0,0,0,0,7544,0,0,0,13268,0,0,0,0,0,0,0,0,0,10994,9588,0,0,0,6174,0,5979,0,8252,0,0,7963,0,8164,0,0,0,8125,7368,7508,0,0,0,0,0,0,0,0,0,8368,0,0,0,0,0,7582,0,0,8838,0,0,9113,0,7479,0,11582,0,0,9077,0,11709,0,13423,7956,0,0,15528,14540,0,0,0,0,0,0,9069,0,0,0,8183,0,7464,0,0,0,0,8002,0,0,10654,0,6931,0,11126,0,0,0,8850,5874,0,7693,0,0,7520,0,0,0,8187,8808,0,0,0,7739,8104,0,0,0,7554,0,0,0,0,0,0,0,0,0,0,0,0,0,0,0,0,0,0,0,0,0,8748,0,0,0,8394,7718,0,6763,8142,7384,0,0,7007,0,0,11696,0,0,0,0,0,0,0,10643,0,8504,0,0,0,8296,0,0,0,10425,0,0,0,0,7762,9825,0,0,8195,0,0,9029,0,0,0,0,7223,11988,5254,0,0,0,0,0,0,0,0,0,0,0,0,0,0,0,0,0,0,0,0,0,0,0,7267,0,0,0,0,0,9276,0,0,0,0,0,0,7163,10858,10736,0,0,0,0,0,0,0,6940,0,0,11027,0,0,0,11702,12758,0,0,0,0,0,0,0,0,0,6945,0,8927,10029,0,0,0,0,10167,0,0,7053,0,0,0,10417,7029,0,0,0,0,0,0,0,0,0,0,0,0,0,0,5789,7871,0,0,0,14458,10413,0,8282,0,0,0,0,0,0,0,0,0,0,0,0,16690,0,0,7589,7074,0,10108,9751,0,5948,9956,13395,0,0,0,0,11320,0,0,0,0,0,7130,10113,5023,13643,0,0,0,0,0,0,9071,0,0,0,0,0,0,0,0,0,0,0,8115,12954,7731,0
7103,0,0,0,0,0,0,0,0,0,0,0,0,7070,0,0,0,0,0,0,0,0,0,0,9556,0,0,0,0,0,0,0,0,10877,0,0,0,0,0,0,7547,0,0,0,0,0,0,0,7366,0,0,0,6296,0,0,0,0,14030,0,0,0,7557,0,0,7883,0,12155,0,0,6437,9486,0,0,0,0,0,0,0,0,0,0,0,0,7662,0,0,0,13581,0,0,0,0,0,0,0,0,0,11126,9734,0,0,0,6311,0,6078,0,0,0,0,8101,0,0,0,0,0,8284,7488,7625,0,0,0,0,0,0,0,0,0,0,0,0,0,0,0,7751,0,0,8993,0,0,9268,0,7684,0,11722,0,0,9237,0,11873,0,13673,8075,0,0,15884,14777,0,0,0,0,0,0,9264,0,0,0,8307,0,7587,0,0,0,0,8110,0,0,10845,0,7054,0,11350,0,0,0,8969,5968,0,7794,0,0,7673,0,0,0,8321,8930,0,0,0,7849,8239,0,0,0,7695,0,0,0,0,0,0,0,0,0,0,0,0,0,0,0,0,0,0,0,0,0,9001,0,0,0,8595,7851,0,6870,0,7515,0,0,7168,0,0,11853,0,0,0,0,0,0,0,10813,0,0,0,0,0,8454,0,0,0,10652,0,0,0,0,7895,9960,0,0,8349,0,0,9153,0,0,0,0,7355,12235,5361,0,0,0,0,0,0,0,0,0,0,0,0,0,0,0,0,0,0,0,0,0,0,0,7414,0,0,0,0,0,9416,0,0,0,0,0,0,7311,11006,10880,0,0,0,0,0,0,0,7119,0,0,11223,0,0,0,11863,12936,0,0,0,0,0,0,0,0,0,7073,0,9084,10270,0,0,0,0,0,0,0,7160,0,0,0,10591,7145,0,0,0,0,0,0,0,0,0,0,0,0,0,0,5880,8024,0,0,0,14723,10599,0,8453,0,0,0,0,0,0,0,0,0,0,0,0,0,0,0,7722,7257,0,10243,9930,0,6037,10073,13628,0,0,0,0,11484,0,0,0,0,0,7312,10295,5112,13906,0,0,0,0,0,0,9239,0,0,0,0,0,0,0,0,0,0,0,0,13139,7863,0
7282,0,0,0,0,0,0,0,0,0,0,0,0,7175,0,0,0,0,0,0,0,0,0,0,9704,0,0,0,0,0,0,0,0,11078,0,0,0,0,0,0,7667,0,0,0,0,0,0,0,7488,0,0,0,6403,0,0,0,0,14230,0,0,0,7682,0,0,0,0,12334,0,0,6555,9607,0,0,0,0,0,0,0,0,0,0,0,0,7787,0,0,0,13845,0,0,0,0,0,0,0,0,0,11338,9886,0,0,0,6403,0,6177,0,0,0,0,8241,0,0,0,0,0,0,7643,7751,0,0,0,0,0,0,0,0,0,0,0,0,0,0,0,7897,0,0,0,0,0,9419,0,7839,0,11942,0,0,9400,0,12148,0,13962,8194,0,0,16204,15175,0,0,0,0,0,0,9426,0,0,0,8426,0,7710,0,0,0,0,8246,0,0,11015,0,7172,0,11588,0,0,0,9150,6086,0,7920,0,0,7781,0,0,0,0,9150,0,0,0,7950,8365,0,0,0,7889,0,0,0,0,0,0,0,0,0,0,0,0,0,0,0,0,0,0,0,0,0,9148,0,0,0,8722,7984,0,6969,0,7638,0,0,7333,0,0,12140,0,0,0,0,0,0,0,11008,0,0,0,0,0,8628,0,0,0,10894,0,0,0,0,8029,10167,0,0,0,0,0,9329,0,0,0,0,7488,12402,5474,0,0,0,0,0,0,0,0,0,0,0,0,0,0,0,0,0,0,0,0,0,0,0,7556,0,0,0,0,0,9560,0,0,0,0,0,0,7453,11153,11025,0,0,0,0,0,0,0,7234,0,0,11409,0,0,0,12045,13152,0,0,0,0,0,0,0,0,0,7185,0,9230,10426,0,0,0,0,0,0,0,7277,0,0,0,10868,7279,0,0,0,0,0,0,0,0,0,0,0,0,0,0,5983,8134,0,0,0,14990,10750,0,0,0,0,0,0,0,0,0,0,0,0,0,0,0,0,0,7870,7385,0,10418,10087,0,6126,10315,13869,0,0,0,0,11788,0,0,0,0,0,7431,10509,5202,14219,0,0,0,0,0,0,9396,0,0,0,0,0,0,0,0,0,0,0,0,13348,7994,0
7392,0,0,0,0,0,0,0,0,0,0,0,0,7270,0,0,0,0,0,0,0,0,0,0,9842,0,0,0,0,0,0,0,0,11263,0,0,0,0,0,0,7787,0,0,0,0,0,0,0,7616,0,0,0,6518,0,0,0,0,14424,0,0,0,7812,0,0,0,0,12482,0,0,6671,9723,0,0,0,0,0,0,0,0,0,0,0,0,7971,0,0,0,14113,0,0,0,0,0,0,0,0,0,11503,10039,0,0,0,6498,0,6276,0,0,0,0,8380,0,0,0,0,0,0,7753,7876,0,0,0,0,0,0,0,0,0,0,0,0,0,0,0,8018,0,0,0,0,0,9574,0,7978,0,12079,0,0,9593,0,12337,0,0,8337,0,0,0,15410,0,0,0,0,0,0,9560,0,0,0,8643,0,7837,0,0,0,0,8408,0,0,11165,0,7283,0,11790,0,0,0,9328,6172,0,8032,0,0,7898,0,0,0,0,9294,0,0,0,8061,8493,0,0,0,8022,0,0,0,0,0,0,0,0,0,0,0,0,0,0,0,0,0,0,0,0,0,9267,0,0,0,8861,0,0,7073,0,7787,0,0,7498,0,0,12299,0,0,0,0,0,0,0,11248,0,0,0,0,0,0,0,0,0,11067,0,0,0,0,8163,10360,0,0,0,0,0,9455,0,0,0,0,7618,12577,5569,0,0,0,0,0,0,0,0,0,0,0,0,0,0,0,0,0,0,0,0,0,0,0,7684,0,0,0,0,0,9724,0,0,0,0,0,0,7576,0,11173,0,0,0,0,0,0,0,7375,0,0,11652,0,0,0,12239,13327,0,0,0,0,0,0,0,0,0,7296,0,9356,10573,0,0,0,0,0,0,0,7434,0,0,0,11058,7388,0,0,0,0,0,0,0,0,0,0,0,0,0,0,6068,8249,0,0,0,15252,10905,0,0,0,0,0,0,0,0,0,0,0,0,0,0,0,0,0,8017,7566,0,10586,10312,0,6272,10462,14121,0,0,0,0,11934,0,0,0,0,0,7542,10762,5291,14520,0,0,0,0,0,0,9534,0,0,0,0,0,0,0,0,0,0,0,0,13653,8129,0
7499,0,0,0,0,0,0,0,0,0,0,0,0,7385,0,0,0,0,0,0,0,0,0,0,9985,0,0,0,0,0,0,0,0,11488,0,0,0,0,0,0,8017,0,0,0,0,0,0,0,7728,0,0,0,6629,0,0,0,0,14819,0,0,0,7936,0,0,0,0,12737,0,0,6762,9947,0,0,0,0,0,0,0,0,0,0,0,0,8089,0,0,0,14303,0,0,0,0,0,0,0,0,0,11728,10190,0,0,0,6578,0,6376,0,0,0,0,8519,0,0,0,0,0,0,7863,8004,0,0,0,0,0,0,0,0,0,0,0,0,0,0,0,0,0,0,0,0,0,9767,0,8098,0,12324,0,0,9753,0,12536,0,0,8484,0,0,0,15633,0,0,0,0,0,0,9979,0,0,0,8758,0,7976,0,0,0,0,0,0,0,11370,0,7406,0,12011,0,0,0,9563,6340,0,8122,0,0,8058,0,0,0,0,9415,0,0,0,0,8634,0,0,0,8165,0,0,0,0,0,0,0,0,0,0,0,0,0,0,0,0,0,0,0,0,0,9374,0,0,0,9040,0,0,7174,0,7893,0,0,7604,0,0,12600,0,0,0,0,0,0,0,11464,0,0,0,0,0,0,0,0,0,11265,0,0,0,0,8297,10569,0,0,0,0,0,9574,0,0,0,0,7748,12851,5666,0,0,0,0,0,0,0,0,0,0,0,0,0,0,0,0,0,0,0,0,0,0,0,7791,0,0,0,0,0,9858,0,0,0,0,0,0,7723,0,11322,0,0,0,0,0,0,0,7497,0,0,11863,0,0,0,12521,13547,0,0,0,0,0,0,0,0,0,7407,0,9506,10787,0,0,0,0,0,0,0,7575,0,0,0,11204,7524,0,0,0,0,0,0,0,0,0,0,0,0,0,0,6157,8380,0,0,0,15516,11052,0,0,0,0,0,0,0,0,0,0,0,0,0,0,0,0,0,0,7714,0,10756,10461,0,6411,10571,14368,0,0,0,0,12232,0,0,0,0,0,7648,10939,5381,14768,0,0,0,0,0,0,9738,0,0,0,0,0,0,0,0,0,0,0,0,13904,8264,0
7600,0,0,0,0,0,0,0,0,0,0,0,0,7481,0,0,0,0,0,0,0,0,0,0,10179,0,0,0,0,0,0,0,0,11640,0,0,0,0,0,0,8146,0,0,0,0,0,0,0,7854,0,0,0,6727,0,0,0,0,15031,0,0,0,8057,0,0,0,0,12977,0,0,6879,10102,0,0,0,0,0,0,0,0,0,0,0,0,8207,0,0,0,14515,0,0,0,0,0,0,0,0,0,11925,10339,0,0,0,6690,0,6546,0,0,0,0,8661,0,0,0,0,0,0,7999,8124,0,0,0,0,0,0,0,0,0,0,0,0,0,0,0,0,0,0,0,0,0,9920,0,0,0,12466,0,0,9952,0,12808,0,0,8584,0,0,0,15853,0,0,0,0,0,0,10258,0,0,0,8922,0,8109,0,0,0,0,0,0,0,11530,0,7515,0,12170,0,0,0,9726,6423,0,8294,0,0,8193,0,0,0,0,9594,0,0,0,0,8761,0,0,0,8313,0,0,0,0,0,0,0,0,0,0,0,0,0,0,0,0,0,0,0,0,0,9474,0,0,0,9179,0,0,7280,0,8012,0,0,7719,0,0,12762,0,0,0,0,0,0,0,11602,0,0,0,0,0,0,0,0,0,11425,0,0,0,0,0,10713,0,0,0,0,0,9758,0,0,0,0,7875,13021,5748,0,0,0,0,0,0,0,0,0,0,0,0,0,0,0,0,0,0,0,0,0,0,0,7884,0,0,0,0,0,10035,0,0,0,0,0,0,7848,0,11473,0,0,0,0,0,0,0,7625,0,0,12047,0,0,0,12731,13721,0,0,0,0,0,0,0,0,0,7536,0,9660,10935,0,0,0,0,0,0,0,7720,0,0,0,11379,7642,0,0,0,0,0,0,0,0,0,0,0,0,0,0,6247,8512,0,0,0,15780,11246,0,0,0,0,0,0,0,0,0,0,0,0,0,0,0,0,0,0,7819,0,10962,10627,0,6498,10709,14607,0,0,0,0,12425,0,0,0,0,0,7840,11119,5470,14952,0,0,0,0,0,0,9858,0,0,0,0,0,0,0,0,0,0,0,0,14127,0,0
7735,0,0,0,0,0,0,0,0,0,0,0,0,7613,0,0,0,0,0,0,0,0,0,0,10311,0,0,0,0,0,0,0,0,11840,0,0,0,0,0,0,8273,0,0,0,0,0,0,0,7966,0,0,0,6820,0,0,0,0,15280,0,0,0,8183,0,0,0,0,13232,0,0,6998,10261,0,0,0,0,0,0,0,0,0,0,0,0,8328,0,0,0,14798,0,0,0,0,0,0,0,0,0,12076,10488,0,0,0,6776,0,6667,0,0,0,0,8799,0,0,0,0,0,0,8126,8313,0,0,0,0,0,0,0,0,0,0,0,0,0,0,0,0,0,0,0,0,0,10079,0,0,0,12695,0,0,10087,0,12924,0,0,8710,0,0,0,16276,0,0,0,0,0,0,10521,0,0,0,9073,0,8254,0,0,0,0,0,0,0,11694,0,7680,0,12322,0,0,0,9865,6536,0,0,0,0,0,0,0,0,0,9768,0,0,0,0,8909,0,0,0,8451,0,0,0,0,0,0,0,0,0,0,0,0,0,0,0,0,0,0,0,0,0,9736,0,0,0,9315,0,0,7382,0,8148,0,0,7841,0,0,13054,0,0,0,0,0,0,0,11783,0,0,0,0,0,0,0,0,0,11610,0,0,0,0,0,10917,0,0,0,0,0,9884,0,0,0,0,8006,13194,5827,0,0,0,0,0,0,0,0,0,0,0,0,0,0,0,0,0,0,0,0,0,0,0,7998,0,0,0,0,0,10182,0,0,0,0,0,0,7962,0,11716,0,0,0,0,0,0,0,7734,0,0,12200,0,0,0,12944,13935,0,0,0,0,0,0,0,0,0,7662,0,9821,11118,0,0,0,0,0,0,0,7830,0,0,0,11522,7774,0,0,0,0,0,0,0,0,0,0,0,0,0,0,6338,8646,0,0,0,16043,11409,0,0,0,0,0,0,0,0,0,0,0,0,0,0,0,0,0,0,7927,0,11142,10836,0,6581,10924,14754,0,0,0,0,12557,0,0,0,0,0,7958,11298,5560,15164,0,0,0,0,0,0,9964,0,0,0,0,0,0,0,0,0,0,0,0,14332,0,0
7845,0,0,0,0,0,0,0,0,0,0,0,0,7799,0,0,0,0,0,0,0,0,0,0,10450,0,0,0,0,0,0,0,0,12025,0,0,0,0,0,0,8392,0,0,0,0,0,0,0,0,0,0,0,6922,0,0,0,0,15529,0,0,0,8309,0,0,0,0,13585,0,0,7119,10426,0,0,0,0,0,0,0,0,0,0,0,0,0,0,0,0,14988,0,0,0,0,0,0,0,0,0,12304,10766,0,0,0,6897,0,6822,0,0,0,0,8939,0,0,0,0,0,0,8265,8450,0,0,0,0,0,0,0,0,0,0,0,0,0,0,0,0,0,0,0,0,0,10275,0,0,0,12846,0,0,10350,0,13086,0,0,8843,0,0,0,16515,0,0,0,0,0,0,10664,0,0,0,9249,0,8432,0,0,0,0,0,0,0,11855,0,7801,0,12580,0,0,0,10021,6655,0,0,0,0,0,0,0,0,0,9938,0,0,0,0,9045,0,0,0,8574,0,0,0,0,0,0,0,0,0,0,0,0,0,0,0,0,0,0,0,0,0,9883,0,0,0,9453,0,0,7487,0,8297,0,0,8007,0,0,13216,0,0,0,0,0,0,0,12015,0,0,0,0,0,0,0,0,0,11854,0,0,0,0,0,11084,0,0,0,0,0,10003,0,0,0,0,0,13476,5919,0,0,0,0,0,0,0,0,0,0,0,0,0,0,0,0,0,0,0,0,0,0,0,8129,0,0,0,0,0,10347,0,0,0,0,0,0,8070,0,11918,0,0,0,0,0,0,0,7850,0,0,12374,0,0,0,13160,14111,0,0,0,0,0,0,0,0,0,7782,0,9947,11308,0,0,0,0,0,0,0,7952,0,0,0,11741,7884,0,0,0,0,0,0,0,0,0,0,0,0,0,0,6430,8787,0,0,0,16306,11564,0,0,0,0,0,0,0,0,0,0,0,0,0,0,0,0,0,0,8033,0,11264,10987,0,6678,11077,15089,0,0,0,0,12704,0,0,0,0,0,8070,11486,5648,15448,0,0,0,0,0,0,10075,0,0,0,0,0,0,0,0,0,0,0,0,14747,0,0
7985,0,0,0,0,0,0,0,0,0,0,0,0,7924,0,0,0,0,0,0,0,0,0,0,10566,0,0,0,0,0,0,0,0,12188,0,0,0,0,0,0,8507,0,0,0,0,0,0,0,0,0,0,0,7005,0,0,0,0,15703,0,0,0,8430,0,0,0,0,13755,0,0,7231,10551,0,0,0,0,0,0,0,0,0,0,0,0,0,0,0,0,15160,0,0,0,0,0,0,0,0,0,12500,10924,0,0,0,6990,0,6962,0,0,0,0,9075,0,0,0,0,0,0,8394,8575,0,0,0,0,0,0,0,0,0,0,0,0,0,0,0,0,0,0,0,0,0,10426,0,0,0,13058,0,0,10484,0,13269,0,0,8967,0,0,0,0,0,0,0,0,0,0,10808,0,0,0,9372,0,0,0,0,0,0,0,0,0,12068,0,7919,0,12922,0,0,0,10181,6740,0,0,0,0,0,0,0,0,0,10113,0,0,0,0,9306,0,0,0,8767,0,0,0,0,0,0,0,0,0,0,0,0,0,0,0,0,0,0,0,0,0,9982,0,0,0,9600,0,0,7586,0,0,0,0,8136,0,0,13512,0,0,0,0,0,0,0,12187,0,0,0,0,0,0,0,0,0,12031,0,0,0,0,0,11254,0,0,0,0,0,10124,0,0,0,0,0,13640,6022,0,0,0,0,0,0,0,0,0,0,0,0,0,0,0,0,0,0,0,0,0,0,0,8243,0,0,0,0,0,10534,0,0,0,0,0,0,8189,0,12070,0,0,0,0,0,0,0,7962,0,0,12569,0,0,0,13374,14328,0,0,0,0,0,0,0,0,0,7899,0,10078,11456,0,0,0,0,0,0,0,8108,0,0,0,11911,8019,0,0,0,0,0,0,0,0,0,0,0,0,0,0,6517,8917,0,0,0,16568,11798,0,0,0,0,0,0,0,0,0,0,0,0,0,0,0,0,0,0,8123,0,11419,11162,0,6789,11294,15303,0,0,0,0,12832,0,0,0,0,0,0,11637,5738,15656,0,0,0,0,0,0,10173,0,0,0,0,0,0,0,0,0,0,0,0,15099,0,0
8102,0,0,0,0,0,0,0,0,0,0,0,0,8031,0,0,0,0,0,0,0,0,0,0,10714,0,0,0,0,0,0,0,0,12386,0,0,0,0,0,0,8645,0,0,0,0,0,0,0,0,0,0,0,7141,0,0,0,0,16004,0,0,0,8556,0,0,0,0,13926,0,0,7325,10692,0,0,0,0,0,0,0,0,0,0,0,0,0,0,0,0,15390,0,0,0,0,0,0,0,0,0,12699,11081,0,0,0,7078,0,7110,0,0,0,0,9218,0,0,0,0,0,0,0,8702,0,0,0,0,0,0,0,0,0,0,0,0,0,0,0,0,0,0,0,0,0,10579,0,0,0,13193,0,0,10614,0,13438,0,0,9109,0,0,0,0,0,0,0,0,0,0,10975,0,0,0,9501,0,0,0,0,0,0,0,0,0,12271,0,8022,0,13105,0,0,0,10333,6834,0,0,0,0,0,0,0,0,0,10251,0,0,0,0,9547,0,0,0,8990,0,0,0,0,0,0,0,0,0,0,0,0,0,0,0,0,0,0,0,0,0,10090,0,0,0,9718,0,0,7697,0,0,0,0,8257,0,0,13677,0,0,0,0,0,0,0,12336,0,0,0,0,0,0,0,0,0,12200,0,0,0,0,0,11398,0,0,0,0,0,10300,0,0,0,0,0,13815,6115,0,0,0,0,0,0,0,0,0,0,0,0,0,0,0,0,0,0,0,0,0,0,0,8401,0,0,0,0,0,10721,0,0,0,0,0,0,8350,0,12220,0,0,0,0,0,0,0,8124,0,0,12701,0,0,0,13595,14512,0,0,0,0,0,0,0,0,0,8016,0,10230,11598,0,0,0,0,0,0,0,8221,0,0,0,12036,8137,0,0,0,0,0,0,0,0,0,0,0,0,0,0,6611,9057,0,0,0,0,11930,0,0,0,0,0,0,0,0,0,0,0,0,0,0,0,0,0,0,8256,0,11633,11319,0,6925,11434,15525,0,0,0,0,13027,0,0,0,0,0,0,11796,5825,15862,0,0,0,0,0,0,10350,0,0,0,0,0,0,0,0,0,0,0,0,15334,0,0
8224,0,0,0,0,0,0,0,0,0,0,0,0,8171,0,0,0,0,0,0,0,0,0,0,10905,0,0,0,0,0,0,0,0,12576,0,0,0,0,0,0,8777,0,0,0,0,0,0,0,0,0,0,0,7246,0,0,0,0,16187,0,0,0,8681,0,0,0,0,14161,0,0,7435,10810,0,0,0,0,0,0,0,0,0,0,0,0,0,0,0,0,15681,0,0,0,0,0,0,0,0,0,12904,11231,0,0,0,7159,0,7255,0,0,0,0,9357,0,0,0,0,0,0,0,8829,0,0,0,0,0,0,0,0,0,0,0,0,0,0,0,0,0,0,0,0,0,10732,0,0,0,13430,0,0,10750,0,13565,0,0,0,0,0,0,0,0,0,0,0,0,0,11103,0,0,0,9654,0,0,0,0,0,0,0,0,0,12397,0,8133,0,13253,0,0,0,10463,6972,0,0,0,0,0,0,0,0,0,10419,0,0,0,0,9804,0,0,0,9147,0,0,0,0,0,0,0,0,0,0,0,0,0,0,0,0,0,0,0,0,0,10208,0,0,0,9827,0,0,7794,0,0,0,0,8390,0,0,13839,0,0,0,0,0,0,0,12459,0,0,0,0,0,0,0,0,0,12447,0,0,0,0,0,11579,0,0,0,0,0,10425,0,0,0,0,0,14097,6214,0,0,0,0,0,0,0,0,0,0,0,0,0,0,0,0,0,0,0,0,0,0,0,8544,0,0,0,0,0,10931,0,0,0,0,0,0,0,0,12506,0,0,0,0,0,0,0,0,0,0,12852,0,0,0,13801,14720,0,0,0,0,0,0,0,0,0,0,0,10364,11823,0,0,0,0,0,0,0,8333,0,0,0,12211,0,0,0,0,0,0,0,0,0,0,0,0,0,0,0,6709,9192,0,0,0,0,12112,0,0,0,0,0,0,0,0,0,0,0,0,0,0,0,0,0,0,8375,0,11778,11449,0,7028,11546,15737,0,0,0,0,13126,0,0,0,0,0,0,11950,5913,16050,0,0,0,0,0,0,10474,0,0,0,0,0,0,0,0,0,0,0,0,15568,0,0
8342,0,0,0,0,0,0,0,0,0,0,0,0,8285,0,0,0,0,0,0,0,0,0,0,11034,0,0,0,0,0,0,0,0,12722,0,0,0,0,0,0,8962,0,0,0,0,0,0,0,0,0,0,0,7336,0,0,0,0,16428,0,0,0,8803,0,0,0,0,14460,0,0,7552,11031,0,0,0,0,0,0,0,0,0,0,0,0,0,0,0,0,15894,0,0,0,0,0,0,0,0,0,13068,11381,0,0,0,7250,0,7370,0,0,0,0,9496,0,0,0,0,0,0,0,8956,0,0,0,0,0,0,0,0,0,0,0,0,0,0,0,0,0,0,0,0,0,10884,0,0,0,13788,0,0,10966,0,13706,0,0,0,0,0,0,0,0,0,0,0,0,0,11303,0,0,0,9824,0,0,0,0,0,0,0,0,0,12604,0,8253,0,13552,0,0,0,10601,7076,0,0,0,0,0,0,0,0,0,10619,0,0,0,0,10024,0,0,0,9320,0,0,0,0,0,0,0,0,0,0,0,0,0,0,0,0,0,0,0,0,0,10335,0,0,0,9937,0,0,7900,0,0,0,0,8513,0,0,14129,0,0,0,0,0,0,0,12662,0,0,0,0,0,0,0,0,0,12833,0,0,0,0,0,11737,0,0,0,0,0,10544,0,0,0,0,0,14265,6309,0,0,0,0,0,0,0,0,0,0,0,0,0,0,0,0,0,0,0,0,0,0,0,8656,0,0,0,0,0,11076,0,0,0,0,0,0,0,0,12654,0,0,0,0,0,0,0,0,0,0,13088,0,0,0,14011,14960,0,0,0,0,0,0,0,0,0,0,0,10556,11977,0,0,0,0,0,0,0,0,0,0,0,12456,0,0,0,0,0,0,0,0,0,0,0,0,0,0,0,6793,9348,0,0,0,0,12247,0,0,0,0,0,0,0,0,0,0,0,0,0,0,0,0,0,0,8477,0,11944,11626,0,7136,11667,15961,0,0,0,0,13345,0,0,0,0,0,0,12120,6000,16227,0,0,0,0,0,0,10647,0,0,0,0,0,0,0,0,0,0,0,0,15766,0,0
8451,0,0,0,0,0,0,0,0,0,0,0,0,8460,0,0,0,0,0,0,0,0,0,0,11237,0,0,0,0,0,0,0,0,12956,0,0,0,0,0,0,9126,0,0,0,0,0,0,0,0,0,0,0,7452,0,0,0,0,16721,0,0,0,8926,0,0,0,0,14704,0,0,7671,11174,0,0,0,0,0,0,0,0,0,0,0,0,0,0,0,0,16129,0,0,0,0,0,0,0,0,0,13211,11529,0,0,0,7370,0,7526,0,0,0,0,9635,0,0,0,0,0,0,0,9092,0,0,0,0,0,0,0,0,0,0,0,0,0,0,0,0,0,0,0,0,0,11083,0,0,0,13914,0,0,11126,0,13917,0,0,0,0,0,0,0,0,0,0,0,0,0,11443,0,0,0,10026,0,0,0,0,0,0,0,0,0,12809,0,8361,0,13815,0,0,0,10754,7171,0,0,0,0,0,0,0,0,0,10760,0,0,0,0,10244,0,0,0,9535,0,0,0,0,0,0,0,0,0,0,0,0,0,0,0,0,0,0,0,0,0,10590,0,0,0,10063,0,0,7995,0,0,0,0,8656,0,0,14290,0,0,0,0,0,0,0,12760,0,0,0,0,0,0,0,0,0,12976,0,0,0,0,0,11908,0,0,0,0,0,10664,0,0,0,0,0,14437,6392,0,0,0,0,0,0,0,0,0,0,0,0,0,0,0,0,0,0,0,0,0,0,0,8801,0,0,0,0,0,11295,0,0,0,0,0,0,0,0,12804,0,0,0,0,0,0,0,0,0,0,13352,0,0,0,14182,15185,0,0,0,0,0,0,0,0,0,0,0,10713,12121,0,0,0,0,0,0,0,0,0,0,0,12655,0,0,0,0,0,0,0,0,0,0,0,0,0,0,0,6887,9475,0,0,0,0,12460,0,0,0,0,0,0,0,0,0,0,0,0,0,0,0,0,0,0,8619,0,12077,11809,0,7264,11780,16212,0,0,0,0,13473,0,0,0,0,0,0,12262,6088,0,0,0,0,0,0,0,10774,0,0,0,0,0,0,0,0,0,0,0,0,15995,0,0
0,0,0,0,0,0,0,0,0,0,0,0,0,8563,0,0,0,0,0,0,0,0,0,0,11421,0,0,0,0,0,0,0,0,13178,0,0,0,0,0,0,9252,0,0,0,0,0,0,0,0,0,0,0,7549,0,0,0,0,0,0,0,0,9093,0,0,0,0,14958,0,0,7778,11385,0,0,0,0,0,0,0,0,0,0,0,0,0,0,0,0,16348,0,0,0,0,0,0,0,0,0,13412,11677,0,0,0,7458,0,7660,0,0,0,0,9776,0,0,0,0,0,0,0,9212,0,0,0,0,0,0,0,0,0,0,0,0,0,0,0,0,0,0,0,0,0,11237,0,0,0,14039,0,0,11354,0,14000,0,0,0,0,0,0,0,0,0,0,0,0,0,11576,0,0,0,10146,0,0,0,0,0,0,0,0,0,13011,0,8484,0,14005,0,0,0,10877,7281,0,0,0,0,0,0,0,0,0,10904,0,0,0,0,10425,0,0,0,9733,0,0,0,0,0,0,0,0,0,0,0,0,0,0,0,0,0,0,0,0,0,10740,0,0,0,10269,0,0,8097,0,0,0,0,8783,0,0,14579,0,0,0,0,0,0,0,12853,0,0,0,0,0,0,0,0,0,13159,0,0,0,0,0,12082,0,0,0,0,0,10844,0,0,0,0,0,14714,6475,0,0,0,0,0,0,0,0,0,0,0,0,0,0,0,0,0,0,0,0,0,0,0,8922,0,0,0,0,0,11468,0,0,0,0,0,0,0,0,12952,0,0,0,0,0,0,0,0,0,0,13513,0,0,0,14369,15477,0,0,0,0,0,0,0,0,0,0,0,10886,12293,0,0,0,0,0,0,0,0,0,0,0,12814,0,0,0,0,0,0,0,0,0,0,0,0,0,0,0,6986,9612,0,0,0,0,12629,0,0,0,0,0,0,0,0,0,0,0,0,0,0,0,0,0,0,8736,0,12218,11997,0,7377,11941,16361,0,0,0,0,13692,0,0,0,0,0,0,12440,6174,0,0,0,0,0,0,0,10888,0,0,0,0,0,0,0,0,0,0,0,0,16146,0,0
0,0,0,0,0,0,0,0,0,0,0,0,0,8664,0,0,0,0,0,0,0,0,0,0,11595,0,0,0,0,0,0,0,0,13409,0,0,0,0,0,0,9406,0,0,0,0,0,0,0,0,0,0,0,7672,0,0,0,0,0,0,0,0,9235,0,0,0,0,15108,0,0,7852,11515,0,0,0,0,0,0,0,0,0,0,0,0,0,0,0,0,16630,0,0,0,0,0,0,0,0,0,13645,11826,0,0,0,7560,0,7810,0,0,0,0,9913,0,0,0,0,0,0,0,9341,0,0,0,0,0,0,0,0,0,0,0,0,0,0,0,0,0,0,0,0,0,11406,0,0,0,14164,0,0,11527,0,14135,0,0,0,0,0,0,0,0,0,0,0,0,0,11696,0,0,0,10325,0,0,0,0,0,0,0,0,0,13183,0,0,0,14180,0,0,0,11068,7367,0,0,0,0,0,0,0,0,0,11108,0,0,0,0,10558,0,0,0,9864,0,0,0,0,0,0,0,0,0,0,0,0,0,0,0,0,0,0,0,0,0,10838,0,0,0,10415,0,0,8199,0,0,0,0,8903,0,0,14740,0,0,0,0,0,0,0,13040,0,0,0,0,0,0,0,0,0,13352,0,0,0,0,0,12282,0,0,0,0,0,10967,0,0,0,0,0,14881,6560,0,0,0,0,0,0,0,0,0,0,0,0,0,0,0,0,0,0,0,0,0,0,0,9024,0,0,0,0,0,11662,0,0,0,0,0,0,0,0,13101,0,0,0,0,0,0,0,0,0,0,13745,0,0,0,14526,15723,0,0,0,0,0,0,0,0,0,0,0,11033,12516,0,0,0,0,0,0,0,0,0,0,0,12995,0,0,0,0,0,0,0,0,0,0,0,0,0,0,0,7067,9731,0,0,0,0,12789,0,0,0,0,0,0,0,0,0,0,0,0,0,0,0,0,0,0,8895,0,12425,12179,0,7474,12060,0,0,0,0,0,13820,0,0,0,0,0,0,12564,6262,0,0,0,0,0,0,0,11124,0,0,0,0,0,0,0,0,0,0,0,0,16283,0,0
0,0,0,0,0,0,0,0,0,0,0,0,0,8777,0,0,0,0,0,0,0,0,0,0,11715,0,0,0,0,0,0,0,0,13577,0,0,0,0,0,0,9577,0,0,0,0,0,0,0,0,0,0,0,7759,0,0,0,0,0,0,0,0,9383,0,0,0,0,15411,0,0,7968,11633,0,0,0,0,0,0,0,0,0,0,0,0,0,0,0,0,16855,0,0,0,0,0,0,0,0,0,13864,11978,0,0,0,7663,0,7940,0,0,0,0,10055,0,0,0,0,0,0,0,9465,0,0,0,0,0,0,0,0,0,0,0,0,0,0,0,0,0,0,0,0,0,11585,0,0,0,14289,0,0,11720,0,14308,0,0,0,0,0,0,0,0,0,0,0,0,0,11827,0,0,0,10510,0,0,0,0,0,0,0,0,0,13345,0,0,0,14427,0,0,0,11204,7512,0,0,0,0,0,0,0,0,0,11250,0,0,0,0,10789,0,0,0,10010,0,0,0,0,0,0,0,0,0,0,0,0,0,0,0,0,0,0,0,0,0,10948,0,0,0,10594,0,0,8300,0,0,0,0,9031,0,0,15038,0,0,0,0,0,0,0,13190,0,0,0,0,0,0,0,0,0,13552,0,0,0,0,0,12440,0,0,0,0,0,11089,0,0,0,0,0,15053,6633,0,0,0,0,0,0,0,0,0,0,0,0,0,0,0,0,0,0,0,0,0,0,0,9128,0,0,0,0,0,11805,0,0,0,0,0,0,0,0,13248,0,0,0,0,0,0,0,0,0,0,13964,0,0,0,14702,15903,0,0,0,0,0,0,0,0,0,0,0,11190,12668,0,0,0,0,0,0,0,0,0,0,0,13178,0,0,0,0,0,0,0,0,0,0,0,0,0,0,0,7162,9861,0,0,0,0,12937,0,0,0,0,0,0,0,0,0,0,0,0,0,0,0,0,0,0,9019,0,12576,12335,0,7563,12205,0,0,0,0,0,13977,0,0,0,0,0,0,12773,6348,0,0,0,0,0,0,0,11235,0,0,0,0,0,0,0,0,0,0,0,0,16532,0,0
0,0,0,0,0,0,0,0,0,0,0,0,0,8883,0,0,0,0,0,0,0,0,0,0,11877,0,0,0,0,0,0,0,0,13720,0,0,0,0,0,0,9724,0,0,0,0,0,0,0,0,0,0,0,7862,0,0,0,0,0,0,0,0,9506,0,0,0,0,15590,0,0,0,11765,0,0,0,0,0,0,0,0,0,0,0,0,0,0,0,0,17043,0,0,0,0,0,0,0,0,0,14100,12132,0,0,0,7746,0,0,0,0,0,0,10193,0,0,0,0,0,0,0,9592,0,0,0,0,0,0,0,0,0,0,0,0,0,0,0,0,0,0,0,0,0,11736,0,0,0,0,0,0,11885,0,14503,0,0,0,0,0,0,0,0,0,0,0,0,0,11942,0,0,0,10641,0,0,0,0,0,0,0,0,0,13552,0,0,0,14638,0,0,0,11346,7611,0,0,0,0,0,0,0,0,0,11358,0,0,0,0,10913,0,0,0,10141,0,0,0,0,0,0,0,0,0,0,0,0,0,0,0,0,0,0,0,0,0,11054,0,0,0,10713,0,0,8402,0,0,0,0,9151,0,0,15198,0,0,0,0,0,0,0,13417,0,0,0,0,0,0,0,0,0,13744,0,0,0,0,0,12651,0,0,0,0,0,11208,0,0,0,0,0,15333,6728,0,0,0,0,0,0,0,0,0,0,0,0,0,0,0,0,0,0,0,0,0,0,0,9269,0,0,0,0,0,11978,0,0,0,0,0,0,0,0,13413,0,0,0,0,0,0,0,0,0,0,14200,0,0,0,14930,16112,0,0,0,0,0,0,0,0,0,0,0,0,12810,0,0,0,0,0,0,0,0,0,0,0,13326,0,0,0,0,0,0,0,0,0,0,0,0,0,0,0,7260,9998,0,0,0,0,13084,0,0,0,0,0,0,0,0,0,0,0,0,0,0,0,0,0,0,9196,0,12750,12506,0,7662,12371,0,0,0,0,0,14164,0,0,0,0,0,0,12928,6435,0,0,0,0,0,0,0,11387,0,0,0,0,0,0,0,0,0,0,0,0,0,0,0
