101,194,194,157,188,147,233,283,100,231,270,138,60,101,334,263,90,206,99,232,86,95,262,118,128,259,191,119,158,236,261,301,322,60,212,112,256,243,129,202,210,168,290,115,74,107,446,152,306,283,105,133,138,160,165,189,98,277,308,173,152,124,164,377,76,296,181,259,246,307,156,161,162,121,228,71,262,179,108,73,86,181,153,209,67,205,121,301,247,189,118,171,257,209,202,180,194,230,148,206,195,145,102,239,210,66,86,86,236,142,200,118,122,136,109,100,76,100,142,191,159,306,171,159,130,374,111,303,189,306,77,239,60,142,60,169,142,117,143,322,250,101,75,384,145,211,221,114,263,144,125,133,145,204,256,285,130,104,122,135,65,285,321,128,288,147,155,328,307,203,83,139,291,94,169,160,141,87,63,146,64,142,94,364,267,146,95,102,66,259,113,81,252,121,150,300,304,246,145,115,267,262,268,212,203,329,158,207,64,189,229,237,61,87,251,106,121,221,266,135,290,204,233,198,107,61,176,289,198,180,330,234,232,114,76,223,191,193,77,400,139,292,179,194,330,117,87,279,72,194,106,326,157,166,196,293,115,132,220,117,89,226,114,109,155,83,112,301,282,257,279,209,89,348,242,69,299,93,237,205,249,177,226,97,250,167,177,148,222,191,330,187,97,143,174,247,183,227,116,75,340,164,243,253,295,163,132,103,157,79,153,358,193,125,169,160,312,218,206,186,237,169,186,137,191,265,209,171,126,200,239,267,281,227,199,117,275,250,264,129,191,69,78,175,178,142,258,152,266,218,172,262,285,106,220,105,310,117,174,98,195,140,162,219,226,299,94,130,122,306,149,180,250,316,226,69,270,191,107,132,292,251,107,69,231,118,143,145,111,164,75,79,235,120,180,145,177,190,173,102,266,308,364,153,138,171,242,286,278,276,60,160,149,245,279,248,274,263,297,107,302,166,163,81,120,151,193,305,146,286,122,273,272,223,227,187,77,85,136,244,119,130,67,156,305,410,91,342,276,183,149,133,111,143,155,266,207,126,112,212,162,226,195,73,77,193,270,171,277,100,227,279,269,137,77,224,127,341,134,102,64,103,96,83,96,210,199,263,200,140,280,229,168,316,269,220,283,166,92,197,69,124,178,173,74,76,267,172,326,333,269,167,300,99,132,77,250,167,157,230,298,272,69,282,286,140,112,114,260,262,173,181,224,147,179,92,151,270,257,99,84,145,106,104,326,291,236,219,61,298,125,73,136,168,222,98,183,174,277,151,94,81,156,61,87,157,165,84,160,227,142,183,342,211,143,126,120,217,63,260,173,114,196,137,320,358,68,265,130,279,78,60,84,147,181,143,211,531,95,221,326,176,112,165,98,124,276,173,266,168,86,158,162,164,272,202,179,278,103,154,130,188,182,107,218,142,303,255,173,115,276,225,151,226,211,178,73,315,98,240,287,235,210,199,68,203,250,96,257,199,290,200,170,149,102,147,100,79,317,204,76,192,166,188,72,183,313,122,243,205,195,254,185,248,237,299,68,102,250,186,208,182,154,288,112,270,289,195,64,77,222,81,179,233,321,132,296,169,261,179,69,246,121,61,270,125,171,259,124,134,89,222,119,254,176,258,258,85,216,259,133,205,268,294,221,378,444,80,222,285,93,271,274,210,62,379,222,92,235,117,74,180,275,256,167,123,300,177,171,129,199,179,194,69,169,67,116,89,177,184,283,309,157,83,357,68,243,211,174,155,208,78,215,219,172,259,201,233,65,165,164,264,86,114,244,287,147,183,306,185,154,240,236,145,249,303,115,128,98,269,257,215,190,281,135,77,203,132,123,163,335,81,175,90,86,148,114,121,146,77,288,226,183,301,69,120,81,270,96,156,252,118,279,197,198,253,205,98,257,94,230,208,185,212,118,237,239,167,131,90,256,319,161,213,252,277,145,151,210,87,91,190,223,133,76,121,180,68,195,219,164,149,259,150,190,174,270,105,247,207,142,143,190,205,218,90,161,215,203,206,284,239,292,214,254,229,62,96,202,311,303,74,153,321,61,274,124,298,134,189,313,127,151,264,116,97,101,223,149,62,235,215,272,97,124,257,228,176,225,104,208,268,251,323,181,189,178,279,97,145,226,108,63,123,261,286,71,152,109,114,166,212,154,209,128,295,176,223,162,259,119,248,64,128,94,373,336,236,92,72,225,171,215,74,76,292,113,283,225,280,287,302,66,163,273,179,198,259,303,204,74,239,226,73,121,306,279,313,298,288,237,291,103,281,170,66,172,244,220,154,111,152,83,205,155,234,101,62,78,319,313,185,219,66,163,216,206,225,286,228,144,93,227,352,187,103,79,233,262,313,69,202,183,213,78,117,278,239,280,64,78,77,137,215,274,144,247,62,242,252,145,100,144,120,68,60,108,234,90,168,100,109,120,279,346,109,94,138,165,202,265,120,119,224,291,195,217,181,83,252,234,146,70,120,135,183,93,99,186,151,197,290,76,147,90,237,62,151,146,86,102,192,150,153,141,270,94,185,183,89,155,89,92,226,207,104,222,305,177,71,218,245,62,223,256,171,68,263,88,134,253,101,190,211,318,328,321,236,211,142,186,81,95,81,185,80,144,113,280,138,152,227,339,79,191,292,231,67,248,138,265,141,168,134,318,258,198,78,280,229,141,86,123,95,206,258,262,98,214,73,141,213,299,167,83,252,291,329,191,74,128,207,222,254,142,133,286,249,260,247,306,136,170,192,85,68,197,177,61,309,139,247,189,303,161,115,159,199,79,299,77,342,254,290,156,365,145,305,106,260,143,150,323,316,274,61,119,142,181,79,102,268,206,109,162,66,74,219,61,105,117,246,246,111,247,77,68,160,99,85,93,184,100,72,245,201,173,98,196,317,190,312,182,270,80,261,73,124,285,322,259,360,149,543,192,268,121,134,104,188,173,134,223,106,346,164,92,217,304,251,118,226,256,181,311,135,233,247,104,79,63,68,341,89,259,65,95,339,399,261,108,218,294,221,78,205,173,236,239,223,98,116,159,238,101,204,353,91,190,297,80,142,87,186,337,92,176,196,300,105,217,165,237,249,296,215,228,175,139,292,199,268,112,243,262,198,203,132,164,84,186,83,281,217,280,69,162,88,242,85,171,121,179,312,183,78,271,174,193,179,169,80,194,366,65,136,145,66,354,190,150,244,173,301,88,189,274,219,301,97,244,199,194,242,132,374,275,230,152,117,208,190,181,75,81,143,219,200,89,273,345,119,81,217,254,268,218,82,95,190,224,208,121,82,202,90,246,130,150,415,289,255,315,185,245,273,173,355,70,120,71,392,171,147,296,189,333,136,89,142,140,169,127,288,226,313,246,257,254,222,121,126,241,138,206,273,63,143,141,124,138,132,206,209,162,174,188,189,139,177,202,142,110,298,249,138,316,288,83,274,88,283,286,326,224,181,166,229,225,94,199,110,228,144,206,184,192,148,248,365,109,152,216,137,223,140,67,128,169,201,373,212,82,151,214,76,298,118,134,96,275,141,74,229,214,256,299,115,60,186,164,125,183,153,297,97,290,286,72,205,318,131,216,252,114,233,312,210,93,122,282,158,180,179,98,276,230,142,216,122,174,265,88,145,386,261,249,234,178,290,147,69,384,288,303,96,337,60,232,275,112,113,107,102,125,261,105,259,173,117,255,271,343,89,179,275,242,221,127,322,231,204,158,60,236,64,270,184,78,201,185,340,111,266,132,153,226,134,140,209,335,138,325,143,213,251,197,195,143,68,194,268,240,147,208,113,234,262,74,94,84,255,226,71,233,130,101,62,309,236,284,174,99,105,282,228,179,112,239,220,154,206,232,287,166,66,166,215,126,260,274,74,282,288,157,193,76,190,253,282,151,72,197,160,67,152,231,116,216,217,257,86,189,239,110,86,178,213,188,127,102,87,203,118,217,115,259,247,133,166,81,271,158,226,206,154,141,111,175,117,153,160,81,155,146,242,296,195,305,241,187,358,248,260,140,209,96,205,298,258,256,170,64,94,133,327,78,132,236,202,131,140,128,197,151,336,269,69,145,225,218,128,175,268,140,294,175,166,251,150,201,215,213,251,211,389,250,127,220,150,85,107,197,238,277,283,170,348,312,166,137,116,95,139,227,174,252,96,229,171,268,96,116,126,212,262,131,69,148,262,266,126,71,79,289,117,154,327,161,68,214,100,79,147,174,84,233,162,325,304,127,104,246,110,140,98,202,80,122,168,64,94,85,312,199,239,126,143,194,138,285,214,135,246,200,253,152,142,219,309,195,92,274,277,60,154,84,299,562,149,320,190,301,195,232,75,190,332,230,325,195,112,148,164,248,269,161,278,284,329,298,287,60,271,100,195,313,222,133,294,304,165,315,151,311,238,220,163,160,244,173,249,100,199,61,94,87,102,83,252,255,378,222,72,307,68,103,150,77,203,262,334,166,256,66,188,68,201,189,271,164,74,273,199,150,88,289,207,184,74,235,256,170,232,78,154,270,281,230,138,123,243,291,116,94,282,134,75,186,66,212,340,219,151,109,305,128,104,173,170,121,229,105,308,231,140,182,87,162,65,217,300,283,289,346,238,111,246,100,314,322,241,145,87,61,89,292,68,143,205,177,109,317,113,92,231,292,250,107,153,199,152,100,250,219,194,102,332,148,103,198,128,151,245,132,135,263,93,60,164,348,285,295,74,155,198,120,212,64,107,237,316,250,194,76,113,179,69,179,229,110,91,74,261,127,148,79,238,256,162,127,121,122,92,182,248,321,157,203,270,233,276,92,170,223,87,330,202,126,195,140,249,162,67,278,294,225,145,149,61,136,252,223,175,208,111,87,142,286,202,215,259,80,80,179,71,135,140,146,205,201,273,351,68,161,80,230,331,76,113,229,173,104,166,311,249,196,207,199,110,347,66,224,135,181,149,227,193,81,115,153,87,65,174,90,232,214,269,100,85,141,107,161,326,183,324,214,147,107,214,92,205,141,109,209,176,73,246,103,217,250,150,94,198,110,102,128,191,155,129,287,277,65,104,152,346,161,60,222,217,67,123,85,274,146,106,84,62,139,68,122,152,121,175,113,120,135,123,168,280,141,123,75,271,129,197,217,320,250,247,286,242,98,189,170,250,125,209,178,161,122,221,171,100,157,144,206,63,76,258,215,191,232,222,254,117,71,237,113,279,326,236,165,119,264,145,104,307,252,61,229,192,90,323,237,100,281,208,160,193,75,220,246,145,96,129,78,318,162,193,187,68,335,94,111,61,120,265,164,95,204,115,246,80,98,91,232,126,291,229,174,171,63,369,79,261,122,159,195,167,223,146,226,211,173,247,80,109,167,129,63,222,196,129,306,243,213,231,194,256,270,123,103,165,178,214,267,138,143,233,136,248,328,73,244,85,163,133,97,234,315,301,108,203,220,262,146,376,179,61,137,156,353,282,264,306,296,256,137,213,122,257,172,146,152,138,165,191,102,207,229,97,218,281,151,224,172,91,112,79,254,72,71,216,133,223,76,318,187,96,108,151,105,272,121,114,240,183,263,60,261,276,348,202,174,82,286,138,73,207,371,123,127,166,91,88,209,78,64,188,320,241,263,171,60,329,232,133,352,271,96,80,208,93,87,199,88,218,205,221,240,233,202,300,144,71,102,68,190,127,177,153,208,139,78,142,158,219,197,156,247,74,209,103,93,151,254,276,90,292,163,221,328,173,293,118,75,319,212,276,96,236,202,258,309,311,320,75,88,208,147,104,259,260,90,195,157,135,198,294,88,149,199,76,76,387,193,207,126,80,197,168,62,188,162,63,287,126,101,75,99,78,108,173,114,70,130,314,160,91,155,125,121,80,75,134,123,130,181,194,278,287,120,116,156,103,126,114,64,198,259,297,151,142,153,239,190,158,223,90,173,256,93,180,290,226,100,214,290,290,201,113,96,286,97,229,77,262,144,86,355,172,221,407,172,62,270,216,101,61,162,287,320,89,232,154,152,139,79,188,79,170,321,165,83,318,207,151,292,129,202,100,60,77,384,162,168,213,289,132,287,207,312,240,209,129,82,213,133,135,175,185,215,131,104,95,246,114,181,274,79,131,273,242,114,288,191,71,295,176,243,167,253,260,179,230,106,242,175,77,126,102,130,351,191,203,122,103,291,328,210,147,290,86,79,143,273,111,285,104,249,89,175,259,96,181,256,161,265,218,118,328,91,88,204,140,106,332,79,261,174,206,107,160,188,103,62,120,315,280,239,138,132,98,293,133,127,131,141,92,190,61,91,135,321,120,254,132,144,256,137,288,84,201,285,322,173,200,280,335,93,217,286,80,213,239,147,226,250,86,175,74,260,115,221,97,173,108,335,199,168,171,166,221,92,94,278,201,257,276,254,149,72,240,138,261,92,101,177,158,155,330,242,78,211,65,185,157,353,111,316,109,174,292,236,157,64,133,287,374,217,126,143,230,187,285,270,248,268,202,175,205,128,87,149,86,148,138,279,160,319,186,155,216,241,83,126,149,273,130,64,137,208,242,251,233,111,73,197,172,150,144,168,277,255,307,118,277,261,202,254,209,77,336,144,241,291,272,194,144,321,367,316,118,120,130,249,149,275,271,107,148,365,63,195,212,303,108,210,244,298,180,104,179,251,210,209,94,134,74,248,257,202,72,104,81,166,257,141,175,334,60,104,165,81,152,267,225,83,108,323,178,192,260,233,146,94,145,94,242,137,161,125,250,231,132,113,371,289,80,235,148,193,122,244,150,193,197,196,97,275,141,151,165,273,216,193,268,144,284,81,198,86,314,197,106,347,254,87,115,105,256,122,245,114,220,102,111,128,103
199,438,473,365,540,417,546,528,374,499,482,375,349,178,639,507,327,401,435,515,331,318,559,415,348,420,425,431,435,422,475,558,603,315,538,347,537,525,385,402,414,411,538,363,346,385,689,406,612,511,385,481,197,409,378,397,373,581,566,504,422,377,354,730,296,557,389,520,514,568,410,373,239,371,544,348,544,502,343,300,320,505,407,410,270,462,336,604,484,390,237,481,539,513,516,436,482,491,371,476,402,359,339,482,398,349,301,343,523,331,538,349,356,382,337,331,311,432,360,406,414,557,381,371,451,686,294,558,466,571,305,545,349,408,320,413,407,384,393,621,577,198,302,709,409,439,464,340,505,405,383,378,384,480,466,533,384,375,312,240,303,542,617,210,523,403,399,608,598,489,336,432,515,309,436,407,447,422,242,471,306,361,382,659,490,468,385,368,319,512,250,160,452,386,403,599,626,477,354,424,473,536,575,468,502,616,421,522,303,417,496,555,317,363,581,400,325,469,560,345,582,414,437,479,443,341,444,567,433,418,642,559,505,296,249,514,384,451,337,775,364,545,416,526,609,367,414,630,340,381,335,596,492,399,542,526,345,391,411,319,273,434,395,332,353,252,305,609,544,456,497,422,408,657,471,307,630,337,453,503,548,422,483,368,509,509,446,324,439,451,654,406,334,371,422,585,467,410,387,303,620,382,533,549,555,483,434,371,471,307,414,670,379,529,354,644,588,482,364,433,448,511,460,418,475,527,427,386,359,429,432,343,557,509,405,326,562,500,483,328,427,303,384,434,393,451,497,427,542,484,439,499,566,322,417,293,561,375,439,337,478,387,397,423,475,538,360,353,450,558,439,450,495,579,490,286,488,256,390,435,565,469,341,299,452,330,401,417,371,379,279,270,491,341,461,384,394,419,483,349,480,581,697,411,421,492,454,531,511,491,309,373,243,535,499,519,505,600,541,292,581,359,374,314,364,354,488,488,355,537,287,568,543,458,497,478,212,285,272,464,456,386,291,418,552,760,355,657,647,501,393,387,313,353,373,478,410,397,321,465,355,430,405,306,300,469,489,235,564,380,445,586,470,320,333,295,355,639,370,338,307,375,474,399,433,448,400,507,424,380,600,449,385,635,516,457,558,368,292,476,267,434,424,404,350,354,517,426,614,613,507,442,567,316,326,338,465,431,412,484,603,435,240,550,587,390,380,367,488,504,432,377,538,356,400,381,443,455,501,434,338,469,368,390,654,522,451,460,299,560,443,306,378,450,492,308,414,426,569,495,256,402,399,275,334,398,420,409,464,450,247,266,637,470,446,312,378,473,279,497,406,327,481,409,604,725,281,502,418,500,280,403,344,396,268,431,468,1026,303,534,618,401,409,444,307,376,520,434,502,426,345,367,430,465,574,422,441,568,327,456,352,434,461,339,466,355,573,533,435,351,401,469,456,427,451,412,327,565,396,538,547,433,409,454,333,458,523,349,506,484,634,507,400,383,375,465,423,363,579,550,285,440,400,526,353,386,622,302,459,432,432,518,457,535,469,557,264,319,551,401,550,382,451,551,357,515,526,390,372,352,532,356,437,453,636,471,552,384,466,486,293,252,416,183,484,363,393,530,378,354,310,504,316,501,404,491,469,310,399,562,364,400,575,581,508,699,813,348,316,553,369,513,511,466,279,710,449,373,493,403,340,455,530,495,351,398,648,488,357,350,404,450,448,134,442,334,418,312,410,362,515,571,358,363,637,325,519,422,444,340,438,161,471,535,401,537,460,485,331,420,351,521,338,218,529,539,413,428,590,423,430,485,473,357,506,547,316,365,186,512,507,434,492,632,384,411,491,358,379,434,665,276,394,307,324,397,360,372,376,259,582,418,435,579,344,376,326,528,354,517,571,298,586,442,475,505,451,409,415,339,477,504,352,462,437,557,488,438,494,291,373,446,380,442,405,494,438,443,458,356,346,490,473,305,279,353,459,286,480,425,444,411,522,394,410,322,695,365,472,442,429,407,412,466,299,399,470,477,494,532,511,484,526,504,492,483,281,330,473,588,550,335,339,466,272,533,338,553,326,442,595,435,382,495,330,371,434,458,317,325,443,428,561,357,405,484,778,411,438,398,453,468,536,632,422,474,445,543,366,374,445,333,304,501,517,555,142,456,374,343,369,508,456,446,379,637,414,528,348,362,301,476,300,356,369,712,641,471,348,318,537,280,430,253,284,561,401,455,440,526,537,614,262,372,551,535,409,485,567,510,280,519,481,300,360,609,521,578,598,536,419,590,344,579,430,289,391,467,478,358,323,429,221,388,313,530,300,289,395,630,494,435,521,296,444,463,459,512,556,511,355,358,533,658,403,319,261,445,473,607,309,503,408,435,282,422,544,550,535,347,331,339,366,487,542,253,493,355,498,498,476,364,471,208,293,289,315,466,334,284,294,342,332,564,688,527,330,397,493,433,494,341,396,446,585,386,414,458,312,527,426,396,294,444,443,527,193,324,442,356,364,619,271,417,361,430,407,398,370,351,393,415,389,411,439,510,254,446,371,370,352,339,167,505,428,377,450,556,458,411,487,534,315,466,494,434,326,584,283,379,499,345,432,469,633,608,629,531,494,373,374,285,402,307,492,324,375,418,508,429,425,436,652,366,382,580,512,325,492,393,481,384,356,339,650,497,417,313,582,346,404,313,318,335,401,514,472,294,455,346,390,503,553,458,346,504,524,617,485,378,374,467,456,563,421,404,558,479,481,519,560,363,377,426,273,308,429,402,257,656,411,563,414,609,463,385,398,442,310,626,378,611,520,553,438,662,706,629,216,544,340,429,631,535,542,237,382,273,375,347,309,509,429,341,377,349,266,408,231,335,372,452,487,352,460,289,276,402,310,336,430,464,387,400,529,377,408,414,470,466,430,581,393,504,262,498,408,415,532,589,488,667,362,823,443,544,307,362,315,283,422,301,478,316,696,355,370,475,642,519,378,514,524,439,571,403,481,490,369,286,298,291,615,439,545,295,362,643,743,560,323,411,587,486,289,481,396,460,443,417,350,372,409,480,326,460,693,360,409,559,347,327,294,425,624,394,349,406,584,334,499,350,518,463,644,431,451,460,378,610,520,489,327,453,507,368,414,364,402,327,418,400,591,439,543,188,352,412,471,328,528,337,456,628,456,281,544,359,446,468,365,188,512,711,306,332,412,260,692,410,428,488,489,594,260,362,574,443,542,429,467,413,383,462,315,699,554,446,388,208,421,518,492,264,339,324,524,560,378,541,641,365,298,429,553,520,437,324,373,495,333,466,352,283,469,326,548,408,393,720,605,487,630,427,538,524,407,661,376,388,298,722,396,405,639,470,425,429,298,398,369,379,429,539,471,570,480,576,523,462,341,433,505,340,449,495,328,335,240,372,394,339,443,446,423,410,507,348,399,384,412,391,380,561,456,334,627,550,380,477,342,511,572,527,467,432,401,278,495,400,509,356,426,331,432,436,414,379,484,707,354,441,415,409,489,365,360,369,490,432,667,495,326,379,389,356,587,389,324,357,542,363,334,490,268,484,546,340,345,483,459,345,349,413,540,319,564,579,306,540,580,355,493,456,440,486,595,437,304,393,502,381,418,435,365,554,457,359,554,355,393,496,396,441,706,541,521,503,435,570,413,390,726,531,632,300,676,253,544,478,329,387,314,365,434,521,294,478,504,315,475,398,506,366,368,555,487,429,359,610,501,416,360,290,508,269,524,467,308,507,430,659,320,559,521,354,476,330,392,277,665,337,646,520,434,489,428,455,428,337,377,520,438,390,502,203,488,528,288,334,295,516,494,327,483,386,306,309,610,509,534,369,380,310,543,376,451,346,589,456,397,462,421,549,526,314,439,430,325,574,540,310,570,564,448,535,374,451,578,536,489,310,375,370,293,422,489,339,484,467,519,294,498,457,308,364,399,434,403,346,163,344,456,355,419,368,553,505,366,239,283,560,433,473,409,365,362,457,425,374,396,534,367,428,404,524,552,429,560,506,494,654,522,551,346,507,337,469,551,569,505,433,319,319,370,621,314,314,541,423,380,297,430,450,387,645,483,299,366,439,494,380,379,603,380,596,382,397,517,408,440,432,481,532,484,748,484,430,411,427,369,372,548,538,546,581,494,607,629,443,368,346,348,378,458,440,608,360,428,460,527,369,353,410,468,445,411,272,348,489,491,244,356,291,541,375,376,609,386,306,434,185,275,362,393,353,428,444,647,565,302,326,533,389,396,344,408,311,319,379,378,290,362,613,456,430,369,383,445,379,521,433,347,450,483,451,322,396,505,572,465,377,515,549,268,424,357,663,835,428,549,444,618,388,483,366,407,629,431,620,437,278,380,484,496,552,415,531,534,623,557,532,329,507,342,497,571,432,395,614,580,426,573,411,666,459,477,397,410,494,405,520,374,426,275,341,419,343,287,514,483,725,459,332,558,259,315,475,434,498,473,337,467,480,360,439,310,375,481,558,465,284,518,416,379,262,563,404,406,351,521,487,409,595,330,436,478,515,530,383,329,485,536,305,305,510,395,370,461,357,459,633,559,258,362,612,339,428,417,453,334,455,467,478,487,444,403,389,415,286,411,604,425,558,649,441,405,477,230,591,655,454,364,286,327,291,609,316,213,444,460,406,599,402,270,451,531,501,320,398,469,345,363,523,468,419,359,598,367,327,406,399,382,459,372,418,533,362,344,441,653,599,586,331,398,442,301,410,181,334,494,637,458,259,325,453,420,323,424,549,330,305,307,563,367,389,316,579,485,467,331,442,348,298,464,484,594,450,431,528,562,508,389,522,484,387,631,395,368,444,379,508,403,315,517,574,565,396,372,252,374,459,407,460,501,375,157,401,511,392,486,517,273,337,417,403,348,382,387,478,424,544,664,300,495,320,480,676,358,407,500,309,322,415,622,497,372,505,438,361,669,343,457,373,422,351,424,423,168,363,378,355,300,431,392,450,436,512,364,382,393,332,385,643,500,641,494,337,363,402,367,502,462,377,542,472,300,506,304,477,559,790,431,448,222,313,360,419,383,412,595,515,319,374,388,625,435,275,381,497,293,421,296,506,379,353,282,311,383,333,437,336,413,359,333,356,475,444,363,490,366,363,305,612,360,547,438,589,542,539,566,481,337,462,406,485,399,428,384,356,407,465,387,383,414,435,481,326,319,553,558,460,447,530,468,402,395,467,350,517,615,512,495,305,535,437,310,580,462,358,447,401,421,599,507,337,562,475,428,414,272,500,544,435,333,426,381,591,353,371,396,267,629,365,375,381,338,480,365,352,524,350,502,268,332,335,424,359,541,454,446,403,302,723,161,506,356,444,467,404,506,364,489,414,372,495,276,375,397,380,417,529,506,340,600,506,479,309,446,483,574,358,294,439,374,483,490,362,460,424,332,355,642,335,535,275,452,435,181,503,599,554,419,443,500,503,515,695,393,261,540,380,658,549,495,581,562,478,446,474,401,467,418,338,459,253,426,519,411,405,494,323,460,420,396,516,267,382,501,302,480,332,160,495,348,465,171,650,442,372,329,418,321,527,436,348,449,508,475,243,612,515,632,460,418,412,575,357,296,406,662,374,389,480,293,328,507,282,276,420,558,304,615,230,259,646,419,336,669,502,311,325,411,255,281,465,328,433,431,469,507,547,401,592,389,282,375,376,370,366,423,353,586,442,350,358,469,430,473,366,490,280,431,411,352,459,523,498,395,420,420,586,604,499,550,370,331,391,478,598,315,526,447,504,576,567,582,377,371,439,361,389,514,596,362,456,426,312,369,442,348,446,288,273,297,702,440,414,381,346,434,471,334,394,427,278,517,459,360,159,326,315,344,451,452,323,354,588,375,382,360,382,343,331,340,406,253,366,389,352,507,511,360,348,357,355,430,386,366,396,507,606,679,230,402,487,432,434,465,399,372,535,384,464,523,442,242,440,576,572,532,347,429,544,320,410,302,520,404,372,530,355,522,767,371,312,518,496,389,329,300,583,594,413,515,555,352,425,371,415,337,387,614,465,376,663,437,369,552,394,342,333,333,328,723,400,360,531,606,311,540,525,647,478,442,399,302,421,413,461,261,442,449,327,386,386,505,415,449,497,368,434,593,475,451,531,452,350,655,414,524,543,503,497,393,370,370,510,432,298,423,310,386,589,449,410,386,411,570,640,462,361,524,326,316,398,496,219,609,328,538,288,435,599,283,430,484,448,569,473,377,667,380,197,500,369,360,653,335,563,416,448,408,440,445,356,337,325,590,531,515,483,376,368,583,345,356,322,350,341,415,311,352,375,649,358,479,404,374,522,332,563,311,433,518,656,453,442,530,619,314,414,546,303,439,449,405,506,571,310,481,319,467,346,437,361,437,400,604,442,438,395,434,463,267,311,538,515,519,533,504,456,249,485,436,570,288,328,524,434,404,621,434,369,453,256,458,376,715,331,644,331,408,627,517,425,293,318,578,690,488,400,352,461,402,578,569,525,558,379,447,458,375,276,443,289,445,311,518,503,603,365,471,475,481,328,376,355,526,365,318,397,444,501,551,458,304,244,474,376,401,224,417,604,568,566,336,537,545,337,464,564,287,656,399,471,527,562,465,408,649,674,599,374,348,380,481,431,527,503,366,349,740,341,388,450,554,302,438,520,570,385,332,492,510,389,526,288,370,343,532,465,403,317,320,257,239,558,326,433,628,292,322,410,289,398,493,529,388,427,589,485,402,515,540,373,364,399,360,537,363,352,389,547,431,475,366,687,544,232,465,357,436,334,485,388,501,408,397,211,541,377,430,405,410,391,458,518,398,548,269,441,378,660,509,217,641,477,310,354,308,481,399,500,264,455,406,370,342,366
449,680,745,579,884,693,868,779,651,750,711,612,633,364,937,753,562,595,769,810,574,537,856,625,575,665,657,744,717,607,693,805,896,569,875,580,819,811,633,603,616,656,788,606,636,657,824,659,974,734,662,585,393,585,591,607,641,882,828,845,696,655,497,1087,510,816,596,780,792,820,646,583,551,600,860,645,828,824,577,535,555,584,667,605,473,732,578,895,714,589,339,783,836,823,820,700,769,757,600,736,622,575,580,724,589,634,520,604,813,523,863,581,588,627,562,564,542,766,570,625,679,834,592,566,773,994,476,819,752,838,535,854,643,670,578,641,677,646,634,921,900,356,529,1031,671,662,706,559,1071,666,653,631,600,756,684,777,640,628,507,345,530,796,906,299,757,648,659,893,898,775,589,738,730,524,706,654,585,747,423,797,550,572,673,999,712,774,680,642,575,765,384,282,648,483,647,899,951,707,562,524,675,815,882,727,798,902,689,848,564,645,735,875,570,639,907,692,524,719,866,559,879,624,695,781,791,620,731,844,673,668,957,890,789,480,421,811,576,714,598,1152,579,798,652,842,884,618,713,937,613,548,566,866,829,614,880,754,576,650,604,535,452,641,676,563,555,429,497,913,806,567,717,635,709,970,700,550,957,579,669,807,853,672,736,644,776,835,749,501,660,707,982,628,569,594,666,961,743,592,650,498,892,604,826,925,816,801,720,642,789,540,679,986,569,743,539,892,868,743,431,673,661,840,739,615,759,792,646,595,573,661,627,525,833,715,609,543,847,752,701,526,661,537,682,714,610,738,744,696,818,744,707,735,849,536,645,498,805,635,719,584,754,561,629,636,722,768,628,570,786,814,744,729,727,837,730,513,708,492,676,731,840,684,575,533,671,535,666,689,552,597,485,463,755,561,741,626,601,647,795,592,697,858,998,652,707,815,669,779,754,706,562,583,479,827,737,770,728,932,782,481,851,558,583,550,609,558,790,662,566,786,457,861,814,687,766,769,463,485,408,681,790,644,522,680,797,1095,619,978,1010,817,638,665,527,566,642,690,613,665,529,716,545,633,620,536,525,715,704,475,839,670,681,899,672,502,597,427,616,1235,593,574,580,638,832,721,778,703,603,756,647,620,922,668,601,962,754,699,824,576,392,757,481,714,659,636,634,641,771,683,893,899,745,715,837,533,459,616,677,677,668,740,906,849,413,802,867,636,643,625,704,745,687,575,857,620,620,670,735,691,744,768,500,784,641,669,978,638,665,527,455,833,777,538,617,732,762,517,648,686,846,826,471,744,652,473,578,640,675,718,776,664,457,328,920,725,759,500,629,740,494,745,634,542,801,682,893,1055,494,741,708,732,458,733,601,639,381,734,727,1095,495,841,908,626,684,723,507,632,816,684,737,678,606,584,699,752,869,641,695,860,413,760,578,678,741,570,708,679,847,812,705,586,531,715,768,631,692,620,561,813,696,833,806,636,604,707,591,713,789,607,758,771,974,819,630,616,665,783,516,650,841,890,487,691,637,870,642,589,957,521,675,660,700,782,735,829,702,807,463,535,860,615,905,579,650,816,602,750,766,587,683,619,847,635,700,672,944,812,805,599,673,793,521,484,706,444,695,600,621,798,625,577,518,785,510,566,638,724,676,546,584,859,588,595,882,865,800,1010,1178,616,408,815,644,732,750,718,501,1030,679,655,748,682,599,722,781,733,667,642,996,804,539,570,610,715,694,352,714,604,694,555,667,540,745,839,560,647,926,589,789,632,721,525,671,379,754,848,632,858,724,740,601,670,538,778,579,409,816,798,657,677,770,665,688,731,705,566,764,765,521,604,399,749,754,657,764,989,627,726,773,587,635,710,986,469,414,531,477,646,606,622,606,437,850,620,687,860,625,658,578,784,613,862,889,484,865,701,753,746,700,716,483,581,722,802,474,703,744,888,709,709,768,491,686,603,603,672,591,708,749,745,697,586,589,809,720,479,498,588,748,515,847,629,717,680,780,637,629,611,907,617,702,678,720,677,626,722,592,711,760,792,797,861,737,722,771,793,733,725,497,566,743,863,790,593,411,924,487,791,554,816,557,701,872,741,616,726,549,671,783,693,614,567,658,636,845,612,696,709,1073,645,649,683,695,704,821,937,664,759,710,801,637,674,668,563,549,869,770,811,482,771,643,566,565,799,753,673,634,989,652,835,539,496,488,714,538,601,642,1055,959,705,612,562,889,416,643,431,715,828,528,529,686,769,788,935,461,594,833,890,605,715,837,824,483,786,739,634,597,918,777,843,876,786,639,895,587,876,696,520,611,689,736,560,540,675,410,571,529,827,500,516,674,945,627,686,812,536,725,711,727,804,836,787,571,625,841,962,650,534,444,658,684,910,548,799,620,674,488,711,806,859,790,635,580,602,608,755,845,527,742,679,712,740,800,608,802,425,451,527,519,695,568,468,490,576,545,847,1027,635,565,657,798,659,724,562,689,667,879,595,633,737,540,783,617,653,520,756,763,873,444,557,707,561,559,954,463,688,630,628,756,610,595,631,688,640,632,666,724,750,523,704,560,663,640,596,361,779,653,659,673,810,762,757,754,803,548,712,726,696,631,906,471,623,704,589,688,734,945,867,953,837,786,608,566,491,700,528,791,566,604,714,725,716,701,642,983,647,576,870,799,570,734,647,695,630,547,544,990,737,641,540,872,514,656,581,513,575,616,739,684,487,715,615,648,792,807,753,605,750,754,905,774,684,614,766,710,878,700,675,856,703,714,789,796,590,589,666,465,541,663,628,453,988,686,880,646,920,754,654,640,689,546,939,675,883,784,820,719,957,872,962,347,825,532,711,939,756,809,415,642,527,573,621,534,738,649,571,588,617,454,594,434,565,621,658,727,605,674,498,480,652,519,587,764,744,687,722,820,553,635,736,745,590,724,853,605,730,444,734,743,705,767,867,720,961,576,1069,691,816,483,598,527,416,671,437,733,528,1009,481,642,729,980,786,639,797,792,696,832,670,728,758,633,483,527,514,901,791,833,526,628,942,1088,843,537,604,863,599,492,756,612,682,652,627,602,655,648,725,553,717,1014,647,636,800,612,509,498,673,907,732,433,611,871,563,768,538,772,681,993,649,678,754,615,916,866,711,537,668,753,508,621,597,631,579,552,758,899,667,806,531,539,743,704,566,855,600,734,941,755,476,805,545,704,754,561,290,842,1042,413,524,680,454,1019,631,707,732,803,895,456,535,874,706,657,791,697,628,572,683,499,963,849,654,633,442,637,837,799,456,596,512,819,907,672,813,943,613,498,640,842,773,661,572,648,828,643,765,618,487,727,585,874,685,647,1026,922,719,947,684,832,781,619,977,684,656,520,1053,637,668,969,748,600,712,510,653,599,593,732,782,703,704,711,890,799,693,562,742,786,519,702,694,639,530,417,631,647,549,700,691,691,680,810,531,657,593,627,637,649,811,685,548,937,813,686,678,599,738,862,740,701,735,617,446,758,707,762,597,626,518,654,683,656,607,721,1046,594,712,615,674,751,590,656,618,813,659,973,771,568,602,561,642,882,656,513,619,810,582,593,757,457,710,787,565,633,782,741,521,514,695,777,562,821,873,524,893,842,570,780,658,766,730,896,672,518,665,734,613,645,673,650,795,698,574,825,591,613,732,707,710,929,811,792,775,691,880,675,618,1061,786,950,506,993,447,863,705,528,653,646,625,737,785,480,694,835,513,688,510,717,640,560,836,730,636,592,888,762,625,559,525,781,476,781,760,549,790,676,982,526,830,715,554,723,535,612,408,978,544,961,869,656,726,656,679,721,608,560,772,641,636,797,304,751,838,494,578,500,776,802,586,740,646,508,637,927,796,784,574,672,517,800,492,728,587,940,700,649,716,609,803,886,560,743,641,530,890,799,551,860,843,741,893,669,712,890,780,826,541,642,582,522,687,728,562,755,711,803,504,808,692,499,641,625,656,619,562,464,575,704,572,622,624,846,761,605,512,482,846,698,728,610,580,584,796,672,632,643,870,620,706,667,808,815,665,821,754,774,987,794,846,551,820,585,735,817,880,765,693,560,552,607,896,549,498,844,533,583,536,741,710,626,953,701,534,566,637,752,634,588,933,616,892,600,644,777,641,690,649,744,815,766,1102,735,742,605,704,651,635,900,834,813,884,814,711,946,723,596,575,585,612,690,715,978,624,624,735,783,646,588,681,726,659,582,533,740,718,718,516,645,502,795,633,591,919,607,538,651,417,484,579,607,623,623,729,979,817,480,545,821,666,652,589,605,547,514,589,677,489,643,1009,713,618,615,622,695,620,759,648,558,653,774,650,610,665,793,857,739,666,754,812,478,703,633,1021,1107,693,770,766,935,625,734,655,625,946,676,908,697,384,611,805,736,819,689,789,782,899,820,776,596,755,590,797,829,640,659,931,856,680,845,679,1014,705,742,681,652,748,641,794,600,654,483,463,750,575,499,829,723,1075,695,565,804,461,527,801,795,785,683,621,779,710,661,684,555,586,762,845,761,489,759,635,604,606,833,596,639,615,802,722,666,973,577,717,691,766,813,614,522,728,772,493,519,742,654,432,756,655,708,929,902,376,616,944,549,749,664,713,546,690,805,609,743,753,625,695,666,495,600,905,516,815,967,660,676,701,549,886,996,667,577,483,591,496,916,561,511,684,753,686,878,680,325,674,774,752,532,634,734,471,640,757,728,656,602,871,588,549,615,670,621,662,627,700,808,640,612,721,967,913,871,581,644,693,484,605,269,562,751,963,670,405,576,791,662,579,667,850,549,518,539,852,600,614,552,919,717,770,540,759,577,509,738,728,841,747,659,724,880,740,691,871,727,672,948,590,608,688,615,770,647,550,750,972,915,650,682,442,613,669,588,750,793,617,335,674,728,579,754,759,468,592,658,736,558,625,627,742,648,827,995,552,833,556,724,1020,629,691,778,415,573,645,934,758,553,809,677,616,999,620,691,607,667,553,624,654,294,611,603,628,541,691,695,666,668,757,644,661,646,553,589,953,830,961,775,528,599,596,643,771,782,631,836,768,529,773,507,747,866,910,758,698,371,523,595,646,610,692,903,750,561,642,623,907,715,495,598,774,518,711,696,740,617,520,478,563,578,604,750,520,710,539,551,591,816,516,559,714,602,600,537,909,591,901,661,663,840,836,845,716,583,737,638,720,679,650,588,546,701,715,616,654,671,723,641,591,557,847,909,740,662,832,681,686,712,711,583,754,900,783,823,488,817,540,512,823,659,655,680,621,760,864,680,594,846,740,697,659,463,712,850,726,569,655,697,858,538,550,605,467,912,624,639,690,560,696,567,596,822,576,759,330,557,542,657,593,793,692,664,629,533,1061,291,750,575,731,731,500,787,579,758,614,572,745,468,644,641,633,777,839,823,570,900,761,756,444,707,707,878,593,484,719,567,765,720,591,764,606,526,510,970,601,832,466,743,736,478,775,888,815,737,698,780,745,874,1023,609,459,848,616,959,817,751,861,827,710,750,708,680,687,664,531,766,566,687,826,716,604,752,551,912,751,630,802,491,676,831,515,704,594,283,786,563,719,283,989,701,645,546,681,537,790,760,581,657,837,616,390,972,770,938,710,662,737,877,588,529,619,946,628,652,799,496,567,803,486,523,646,791,444,962,321,467,964,612,528,977,733,523,560,609,601,344,760,579,649,663,719,772,859,601,889,621,498,645,519,551,607,672,559,746,720,627,575,772,640,737,575,741,487,652,741,606,587,796,722,696,670,628,953,881,834,797,629,586,622,753,912,533,820,662,753,872,822,849,668,654,691,579,669,772,933,757,720,685,647,556,641,626,732,504,472,518,1054,690,619,639,618,671,766,607,599,696,496,752,784,646,195,560,549,581,723,789,578,575,926,595,672,568,707,563,584,603,671,472,600,596,622,706,760,599,581,560,609,740,655,651,598,751,925,799,507,656,754,678,713,715,708,572,822,677,746,754,661,485,670,862,750,868,592,768,803,547,593,525,774,667,661,666,540,830,1126,567,558,771,777,663,586,580,878,869,734,807,638,556,703,649,649,593,602,908,828,493,1004,708,589,805,660,457,555,594,617,1033,667,552,857,932,685,793,843,989,715,675,660,525,622,626,783,465,702,679,522,671,657,752,693,709,729,624,744,898,707,786,787,713,620,995,650,809,872,750,735,601,692,637,780,685,516,715,516,647,855,704,627,651,717,845,954,719,579,761,562,557,650,720,411,930,555,823,497,689,930,405,675,730,735,887,718,631,1008,674,311,790,592,609,971,449,865,509,689,708,728,698,611,614,534,883,788,786,821,602,668,877,563,589,507,390,585,636,577,623,618,979,614,710,666,601,791,525,844,550,699,747,999,798,672,784,894,523,611,819,529,667,656,682,780,857,547,758,569,697,568,647,613,698,699,850,692,704,632,706,708,478,525,785,841,781,791,771,629,459,724,746,875,479,412,869,707,650,910,624,660,693,444,733,599,1079,553,975,553,643,972,796,677,520,509,868,949,750,653,563,685,616,866,865,799,850,558,722,724,626,465,739,491,537,489,756,814,869,546,780,733,739,574,627,560,785,600,595,657,579,763,838,683,355,418,751,580,649,462,658,813,890,820,534,798,841,428,672,909,492,981,650,695,764,857,739,638,979,997,883,613,570,629,703,716,777,735,618,561,1092,613,576,690,819,497,670,794,862,592,578,792,773,551,834,485,600,624,821,671,602,571,560,433,322,862,476,711,929,526,539,659,500,641,718,845,712,796,853,798,614,770,871,598,624,658,623,832,583,543,650,821,628,809,621,1016,809,508,696,568,684,545,725,633,796,613,600,298,807,591,713,639,608,564,721,770,676,808,457,664,666,1013,815,325,1122,707,625,596,511,706,618,748,416,688,718,630,552,632
695,916,1017,800,1227,954,1182,1028,926,1013,924,844,907,695,1214,1002,799,790,1101,1088,820,762,1154,889,805,865,892,1060,876,793,912,1055,1198,821,1200,806,1101,1082,865,797,818,902,1037,851,953,937,887,797,1250,959,909,660,587,681,807,818,901,1183,1083,1167,969,906,721,1441,716,1073,799,1053,1345,1057,863,788,858,827,1171,947,1095,1166,824,778,791,845,913,802,678,946,812,1209,937,784,561,1074,1139,1132,1123,960,1052,1031,826,1008,860,798,819,969,780,919,745,866,1105,711,1541,813,824,872,790,800,756,1089,815,854,948,1084,804,757,1087,1329,652,1080,990,1105,764,1165,935,931,835,860,942,911,877,1217,1216,655,758,1360,928,888,942,766,1240,922,918,888,820,1032,892,1023,898,876,705,451,762,1049,1204,652,992,901,916,1177,1192,1057,833,1052,945,738,974,903,754,1091,605,1123,789,780,948,1342,941,1057,977,921,831,1004,639,582,847,650,869,1195,1257,940,773,752,874,1098,1191,989,1095,1191,957,1179,778,868,1009,1213,836,917,1265,984,721,970,1191,768,1173,832,925,1054,1108,897,1028,1122,918,942,1277,1222,1071,666,595,1126,766,980,857,1535,795,1048,892,1170,1016,869,1004,1250,887,759,795,1134,1159,821,1213,990,810,921,807,772,631,846,948,804,762,618,689,1218,1066,652,937,850,1027,1286,929,792,1291,818,887,1108,1128,922,992,922,1041,1171,1070,676,877,962,1313,848,798,822,912,1317,1014,771,897,686,1169,825,1123,1214,1077,1128,978,916,1112,770,940,1306,759,842,724,1138,1152,990,656,900,876,1177,1020,935,1066,1062,869,819,786,893,815,774,1106,885,814,765,1021,1006,919,726,881,771,982,959,816,1046,1002,965,1094,996,974,970,1137,751,892,664,1051,895,978,805,1032,733,856,855,966,996,899,804,1114,930,1051,1015,960,1092,1077,739,925,785,962,1027,1115,902,807,765,891,738,909,961,772,815,676,656,1011,781,1022,861,805,875,1092,838,901,1134,1300,910,989,1140,882,1025,1010,918,817,795,713,1110,975,1024,948,1266,1015,680,1127,758,796,786,854,762,1086,866,779,1071,634,1151,1072,916,1032,1062,741,685,545,899,1116,907,753,950,1040,1435,882,1302,1371,1126,889,903,738,776,880,901,813,957,738,967,735,831,847,766,750,972,923,711,1103,961,940,1210,878,678,868,499,856,1526,812,814,801,900,1106,1046,1127,975,811,1010,869,856,1237,881,816,1266,999,944,1075,794,442,1038,703,997,904,878,917,709,1021,948,1185,1183,882,991,1106,746,552,895,888,949,920,997,1190,1165,587,1069,1141,882,896,882,910,979,945,775,1171,891,845,958,1010,918,989,1108,641,1126,911,951,1287,803,877,662,525,1093,1120,759,854,1009,1031,728,875,970,1130,1155,666,1081,909,659,830,888,927,1036,1087,867,668,415,1036,977,1052,692,875,1004,709,1012,865,758,1127,950,1168,1402,712,985,987,971,681,1057,859,861,519,1041,987,1271,683,1184,1198,849,968,991,708,891,1112,930,975,935,1133,809,969,1054,1176,866,935,1155,547,1058,801,915,1027,802,980,942,1128,1092,970,828,796,963,1090,832,936,878,798,1061,1035,1134,1066,848,799,954,857,957,1055,867,1008,1055,1316,1123,863,850,934,1096,751,932,1106,1237,684,972,873,1213,936,792,1269,744,803,894,935,1047,1021,1113,940,1068,662,753,1171,834,1260,774,757,1076,841,993,969,786,982,869,1156,914,962,893,1253,1150,1056,815,883,1099,747,678,1006,703,906,838,849,1070,883,794,720,1067,657,890,878,959,871,785,771,1165,811,790,1191,1155,1106,1315,1562,882,597,1067,917,948,987,968,728,1362,905,922,1006,959,854,979,1030,972,966,873,1347,1110,719,792,817,990,941,537,984,874,950,785,965,719,971,953,760,938,1204,857,1070,840,998,708,908,602,1035,1159,867,1179,994,1001,852,920,725,1036,812,699,1079,1070,920,933,837,901,950,973,940,772,1027,974,725,842,692,980,1005,876,1050,1346,756,1038,1061,818,897,988,1297,668,720,761,554,899,851,880,836,616,1131,815,937,1146,896,924,833,1039,866,1222,1207,685,1151,964,1024,982,937,1031,708,818,963,1103,536,942,1050,1222,975,982,1046,694,781,887,833,899,727,930,1057,1054,933,890,830,1108,971,655,732,813,1043,733,1197,832,995,956,1004,870,850,762,1122,878,926,913,1008,955,826,967,875,1019,1027,1081,1180,1180,960,954,1025,1085,980,966,712,805,1015,1138,1029,854,665,1121,704,1047,771,1073,754,962,1142,1045,850,959,777,986,1135,937,882,814,876,841,1125,875,977,938,1375,893,859,848,928,927,1105,1253,905,1046,961,1047,903,943,889,793,791,1231,1022,1064,816,1058,903,789,764,1097,1029,905,889,1336,889,1144,730,743,682,952,776,848,917,1394,1264,939,853,808,1214,624,863,610,1065,1093,796,767,890,1009,1038,1251,655,809,1100,1246,840,949,1105,1141,684,1071,1015,903,829,1225,1036,1110,1143,1035,791,1202,829,1174,966,755,839,913,989,761,760,936,498,755,729,1122,698,743,970,1258,937,932,1135,785,1004,961,997,1097,1119,1081,791,886,1150,1274,880,746,628,871,895,1217,787,1101,826,742,695,979,1066,1166,1043,924,830,795,853,1024,1118,798,993,980,932,989,1147,836,1133,642,519,764,722,926,781,766,683,798,619,922,1372,943,795,932,1086,874,955,779,958,889,1174,783,860,1017,762,1030,809,919,743,1079,1092,1215,790,788,998,767,740,1287,762,962,898,825,1105,954,824,915,968,863,880,923,1016,989,744,965,747,950,873,855,701,1054,878,947,890,1065,1087,1094,1018,1083,795,961,962,954,939,1226,660,858,954,837,958,995,1264,1126,1259,1145,1074,842,763,695,1002,755,1097,812,833,1055,946,1003,982,853,1314,914,769,1163,1083,801,971,888,909,772,741,753,1327,1012,865,765,1137,792,900,862,641,801,853,895,894,680,984,885,912,1106,1060,1049,865,988,986,1193,1045,983,850,1036,963,1200,974,944,1176,931,965,1056,1065,817,803,909,594,764,897,854,655,1324,954,1206,882,1520,1053,915,881,934,791,1239,967,1178,1043,1095,997,1239,1038,1310,582,1103,732,995,1245,971,1079,600,709,799,776,894,754,972,869,801,796,893,634,776,637,795,874,863,969,871,890,708,685,903,724,844,886,1020,976,1031,1116,735,865,1058,1016,672,906,1124,818,950,626,970,1079,996,1008,1149,952,1249,789,1335,933,1057,664,824,739,640,923,550,994,740,1324,552,920,972,1313,1058,898,1069,1064,951,1090,930,976,1017,896,554,747,737,1178,1145,1122,753,898,1244,1434,1112,757,793,1125,779,695,1032,833,897,876,857,856,943,882,975,781,975,1314,952,871,1085,874,693,698,923,1201,1076,554,821,1158,791,1056,728,1035,901,1340,881,901,1038,851,1271,1223,930,744,886,979,576,821,830,854,838,651,1089,1219,895,1070,811,729,1081,933,804,1150,856,1015,1248,1054,642,1061,731,944,1047,758,381,1172,1363,487,719,948,649,1366,835,986,976,1119,1194,677,711,1175,986,881,1101,927,842,763,902,683,1311,1137,857,873,780,853,1088,1105,656,849,713,1114,1252,982,1081,1236,864,716,863,1131,1024,886,826,909,1117,960,1071,862,699,986,841,1200,960,901,1341,1230,966,1273,951,1113,1027,833,1295,991,926,737,1384,932,928,1309,1030,873,996,722,905,836,809,867,1017,950,825,945,1207,1079,922,785,1078,1048,703,956,888,919,724,613,860,898,747,989,943,948,958,1123,730,913,802,843,861,918,1121,920,766,1253,1076,998,880,862,961,1162,1096,933,983,872,696,1018,1016,970,835,828,706,880,927,874,836,960,1392,828,971,815,936,1006,816,943,868,1137,897,1287,1026,809,826,734,936,1170,932,703,873,1082,797,854,1028,749,938,1029,790,923,1086,1021,741,680,981,1022,807,1063,1169,745,1222,1105,783,1082,860,962,985,1176,910,627,932,960,860,866,1084,924,1020,943,789,1050,829,836,974,1017,991,1030,1082,1086,1048,942,1111,932,709,1398,1041,1286,714,1319,642,1186,939,704,922,975,888,1028,1042,668,918,1160,709,905,742,1036,914,756,1121,978,844,829,1161,1017,834,756,762,1052,688,1044,1053,794,1114,919,1309,731,1153,911,792,972,742,836,483,1307,615,1276,1227,876,956,884,915,1009,879,746,1026,846,881,1085,496,1025,1126,705,823,697,1036,1109,844,996,908,708,930,1226,1071,1029,783,969,715,1055,761,989,822,1283,951,903,963,799,1058,1240,806,1013,840,736,1202,1055,790,1158,1107,1031,1216,967,972,1222,1034,1173,768,1020,794,751,1218,963,773,1027,956,1102,707,1112,934,686,920,858,872,835,774,730,802,963,783,825,880,1140,1018,848,772,678,1125,958,974,809,794,805,955,923,892,886,1100,870,987,933,1062,1094,896,1085,1005,1086,1330,1061,1155,755,894,830,1003,1086,1198,1029,961,822,792,839,1144,796,689,1144,705,816,729,1044,969,873,1249,920,761,787,839,1012,907,809,1258,855,1192,833,902,1040,859,946,869,996,1098,1029,1453,991,1031,799,977,940,885,1253,1130,1088,1185,1105,822,1260,1007,822,798,780,854,922,977,1326,879,827,1046,1037,929,821,955,987,902,799,814,935,857,945,791,936,715,1053,893,807,1231,837,769,869,536,707,796,814,893,817,1016,1309,1001,660,759,1110,944,908,836,795,783,708,799,976,687,920,1322,975,806,862,861,944,862,997,861,765,864,1040,847,866,940,1083,1124,1015,959,995,1072,702,979,902,1383,1407,966,992,1017,1249,800,984,953,844,1254,904,1190,977,556,845,1129,974,1063,966,858,1030,1180,1083,1027,869,995,826,1091,1091,846,934,1251,1125,928,1127,940,1346,965,1005,962,933,1001,877,1068,848,879,692,583,1082,809,712,1113,968,1424,932,804,1048,675,740,1121,1160,1073,894,768,1086,954,958,931,804,777,1040,1137,1042,617,1008,857,829,943,1085,788,888,880,1076,937,927,1348,826,994,904,998,1095,839,720,995,1006,682,733,977,910,518,868,953,959,1225,1248,498,869,1274,758,1060,909,953,757,928,1168,928,1000,1068,863,997,921,700,786,1203,793,1090,1294,890,925,914,873,1146,1330,882,796,671,851,725,1229,803,793,920,1027,972,1149,947,558,889,1023,1007,744,880,971,789,915,997,990,900,855,1144,810,773,823,940,860,869,872,987,1087,934,878,987,1297,1222,1168,828,890,964,691,797,392,781,1007,1262,883,613,830,1131,905,816,907,1144,764,732,770,1138,828,845,779,1250,948,1061,749,1044,811,729,1016,1000,1086,1046,758,794,1201,972,991,1224,980,920,1266,784,841,929,856,1035,888,787,975,1365,1245,904,907,631,854,879,776,1057,1076,846,636,953,876,762,1022,1023,667,850,899,1070,768,873,862,1006,872,1111,1287,810,1175,797,959,1363,916,977,1057,575,841,881,1243,1025,738,1120,907,873,1328,891,917,844,921,756,824,887,440,857,830,1358,787,962,992,882,893,1000,917,947,900,760,808,1264,1162,1280,1049,718,885,795,921,1044,1099,858,1202,1055,751,1040,709,1034,1166,1005,1054,949,618,720,832,865,831,972,1204,989,813,900,859,1196,1023,714,745,1048,745,995,887,976,856,721,673,813,802,876,1062,592,1008,722,770,816,1158,744,761,907,844,835,775,1250,820,1242,886,770,1133,1130,1129,952,831,1015,838,955,961,868,787,739,996,1070,824,931,922,1008,856,856,799,1144,1257,1021,880,1138,894,967,1038,959,817,984,1185,1045,1139,672,1061,813,715,1064,892,959,923,847,1100,1139,898,882,1131,1008,965,912,664,781,1168,1018,869,899,1017,1126,716,736,816,669,1194,870,902,982,786,910,773,838,1127,801,1014,584,783,739,861,845,1042,923,899,866,765,1414,541,994,824,1011,997,643,1054,801,1023,813,772,999,662,903,930,886,1136,1143,1142,793,1204,1023,1052,678,965,930,1182,831,674,1023,762,1048,936,821,1073,783,721,770,1299,867,1100,657,1032,1032,775,1050,1177,1083,1060,956,1060,972,1238,1355,837,658,1113,851,1261,1083,1053,1130,1092,929,1063,971,960,907,907,722,1068,829,947,1131,1043,806,1006,776,1157,979,869,1093,717,968,1159,743,934,858,575,1073,778,975,493,1333,962,917,758,1202,756,1052,969,816,867,1151,688,718,1327,1023,1248,958,906,1068,1182,803,766,839,1240,887,903,1130,698,802,1106,688,770,871,1029,649,1305,589,684,1286,816,718,1279,807,733,797,812,925,408,1070,824,865,906,969,1035,1174,795,1183,846,725,915,684,734,844,914,767,1074,1022,908,766,1076,845,1005,786,990,693,874,1018,861,768,1063,945,999,931,918,1309,1157,1164,1049,890,842,958,1016,1220,759,1115,879,988,1164,1079,1117,959,907,937,798,937,1030,1262,1074,989,935,979,731,842,909,1016,799,670,739,1371,946,820,871,885,908,1078,884,803,954,712,989,1107,930,429,804,699,812,1003,1130,824,791,1232,817,961,777,842,780,847,864,934,581,839,804,878,940,1026,843,816,767,864,1042,928,934,812,997,1247,939,789,909,1031,920,815,963,975,772,1111,971,1027,982,883,553,900,1137,854,1205,829,1100,1064,774,778,746,1029,934,944,981,734,1151,1489,768,801,1027,1061,938,836,871,1175,1147,1056,1084,953,764,971,939,875,850,819,1202,1174,627,1353,962,815,1058,924,747,773,852,863,1351,917,751,1190,1256,1054,1048,1152,1336,953,906,910,744,814,928,1110,667,959,909,719,937,957,1026,967,971,968,883,1056,1238,941,1113,1054,974,892,1361,883,1099,1196,998,973,808,1010,902,1052,937,732,1007,718,915,1141,962,851,918,1024,1121,1263,975,792,995,800,812,907,939,779,1237,784,1107,705,937,1269,584,906,979,1042,1215,889,890,1353,969,426,1057,807,855,1286,576,1160,655,933,1008,1017,955,868,894,739,1152,1106,1068,1172,827,921,1164,791,829,694,640,827,886,830,891,865,1305,886,937,933,843,1059,718,1127,784,988,980,1325,1110,901,1045,1170,723,806,1105,760,899,860,950,1058,1116,807,1038,819,931,779,854,864,957,999,1109,939,958,870,979,957,676,734,1025,1172,1043,1051,1030,769,634,955,1070,1162,672,566,1209,983,889,1199,816,946,934,632,1004,821,1442,775,1299,772,877,1306,1077,898,748,692,1145,1306,1005,895,775,916,831,1133,1200,1078,1136,740,994,996,879,654,1038,694,743,671,992,1140,1142,729,1086,988,1000,819,870,764,1048,839,878,918,676,1022,1110,905,648,590,1042,781,891,777,897,1130,1205,1081,742,1069,1162,651,880,1233,709,1225,905,922,993,937,1012,879,1300,1329,1164,842,777,881,933,995,1031,967,866,769,1443,883,763,930,1096,691,901,1069,1151,799,838,1092,1040,729,1149,684,823,902,1111,878,797,826,755,610,565,1164,725,1003,1148,758,758,911,718,879,942,1168,1045,1118,1119,1110,827,1017,1070,812,876,919,883,1120,807,735,913,1078,832,1143,879,1345,1082,670,928,773,928,761,963,901,1113,821,821,501,1072,815,997,876,800,739,991,1020,954,1073,646,865,953,1326,1124,541,1422,942,945,836,710,930,673,989,566,918,1029,890,757,879
949,1139,1294,1023,1567,1221,1502,1292,1030,1271,1146,1071,1159,1027,1509,1253,1038,985,1420,1347,1062,993,1447,1145,1035,1060,1127,1375,997,975,1135,1308,1500,1072,1528,1031,1379,1335,1094,993,905,1145,1287,1098,1257,1219,1093,909,1548,1187,1159,926,782,796,1022,1021,1154,1484,1343,1489,1248,1175,909,1800,917,1328,1004,1343,1606,1293,1088,996,1151,1057,1488,1201,1376,1485,1097,1017,1028,1175,1162,1001,880,1190,1028,1539,1154,979,787,1363,1442,1426,1426,1229,1382,1305,1060,1282,1100,1026,1054,1213,971,1204,970,1126,1391,898,1875,1044,1068,1111,1022,1053,976,1388,1050,1091,1222,1335,1018,955,1415,1649,826,1337,1209,1368,990,1472,1219,1195,1096,1093,1200,1177,1136,1515,1535,962,996,1691,1188,1113,1130,973,1490,1174,1186,1156,1027,1309,1096,1271,1162,1143,903,558,997,1303,1501,912,1226,1159,1177,1461,1491,1330,1061,1359,1162,950,1245,1154,1054,1418,785,1450,1035,990,1223,1641,1174,1363,1262,1191,1089,1237,933,766,1053,914,1097,1491,1569,1192,982,1079,1065,1384,1500,1245,1390,1482,1221,1511,1018,1097,1312,1562,1086,1195,1655,1274,912,1218,1508,979,1472,1040,1154,1324,1404,1178,1330,1400,1176,1230,1574,1550,1341,857,770,1459,959,1230,1117,1906,1010,1301,1129,1495,1160,1116,1294,1574,1149,945,1019,1314,1497,1021,1564,1230,1043,1201,1019,1014,809,1045,1225,1028,969,813,881,1522,1329,851,1152,1060,1328,1599,1158,1039,1620,1056,1110,1414,1418,1166,1248,1203,1383,1495,1378,852,1093,1217,1641,1069,1025,1062,1160,1642,1266,950,1133,880,1454,1046,1406,1564,1338,1463,1227,1183,1438,997,1200,1630,942,958,909,1380,1432,1276,839,1121,1091,1513,1301,1198,1378,1332,1078,1057,997,1122,996,1029,1383,963,1021,995,1126,1258,1137,930,1094,1004,1284,1209,1023,1359,1259,1235,1370,1239,1242,1205,1419,968,1101,846,1304,1157,1217,1023,1313,951,1091,1079,1206,1222,1162,1053,1454,1072,1343,1297,1199,1339,1395,965,1143,935,1247,1327,1388,1124,1039,992,1111,945,1191,1231,1025,1032,894,848,1263,1003,1304,1085,1015,1122,1423,1051,1118,1411,1624,1180,1263,1467,1098,1267,1270,1126,1071,1007,952,1395,1173,1283,1163,1601,1251,903,1408,953,1010,1024,1098,967,1402,1138,989,1347,815,1401,1333,1147,1294,1357,1028,887,681,1123,1449,1174,981,1233,1287,1784,1141,1625,1733,1450,1137,1105,936,996,1111,1114,1008,1240,952,1216,925,1027,1072,995,972,1233,1144,955,1397,1249,1202,1516,1087,852,1143,629,1120,1824,1038,1053,1036,1168,1187,1338,1467,1242,1025,1273,1094,1088,1565,1099,1030,1557,1245,1177,1341,1027,678,1293,929,1274,1155,1118,1196,936,1268,1218,1487,1462,990,1281,1372,960,824,1169,1099,1217,1171,1263,1487,1439,763,1355,1406,1128,1161,1138,1124,1215,1201,976,1493,1121,1068,1248,1298,1141,1236,1443,931,1488,1169,1236,1591,1058,1087,979,742,1350,1462,992,1095,1262,1301,939,1101,1272,1422,1484,868,1422,1160,862,1080,1138,1183,1373,1425,1072,880,532,1203,1224,1347,881,1120,1265,923,1291,1095,965,1417,1214,1444,1729,932,1233,1272,1210,883,1386,1118,1108,766,1330,1246,1378,895,1439,1461,1077,1277,1250,917,1142,1401,1175,1213,1194,1392,1033,1238,1370,1474,1084,1173,1446,759,1347,1025,1151,1343,1033,1251,1189,1415,1372,1243,1080,1062,1205,1406,1032,1177,1090,1050,1303,1385,1434,1340,1067,967,1197,1121,1239,1326,1121,1254,1342,1665,1418,1096,1084,1173,1396,1084,1207,1373,1587,900,1064,1105,1550,1228,999,1632,1193,894,1132,1202,1301,1307,1401,1181,1390,858,958,1470,1081,1604,969,1066,1338,1092,1239,1247,995,1270,1117,1466,1185,1231,1116,1564,1498,1319,1046,1101,1409,972,948,1306,954,1116,1075,1079,1345,1130,1017,913,1351,890,1210,1122,1197,1070,1027,960,1481,1037,995,1495,1463,1400,1626,1949,1130,791,1351,1203,1196,1225,1216,954,1697,1134,1192,1264,1241,1116,1237,1285,1208,1303,1106,1696,1406,901,1012,1025,1267,1193,720,1255,1139,1232,1025,1252,905,1200,1040,961,1225,1452,1121,1354,1046,1272,896,1145,827,1393,1475,1101,1508,1274,1269,1121,1150,913,1295,1037,921,1330,1353,1203,1203,1088,1136,1232,1204,1179,976,1290,1182,929,1081,986,1203,1257,1114,1349,1701,872,1346,1356,1051,1155,1263,1587,868,1011,994,788,1155,1091,1151,1065,802,1431,1013,1187,1450,1156,1198,1076,1296,1121,1598,1524,904,1443,1212,1299,1215,1163,1344,891,1071,1210,1395,760,1178,1356,1547,1237,1255,1327,895,862,1036,1051,1122,1047,1157,1368,1365,1095,1157,1076,1422,1231,832,947,1044,1327,946,1550,1035,1273,1233,1280,1106,1071,924,1341,1143,1150,1145,1296,1237,1026,1223,1162,1326,1280,1320,1505,1511,1196,1184,1274,1377,1229,1203,926,1051,1287,1414,1267,1090,849,1318,920,1305,991,1336,954,1218,1405,1228,1089,1192,1012,1308,1477,1171,1154,1062,1094,1042,1399,1144,1246,1183,1656,1155,1069,968,1152,1149,1389,1567,1143,1335,1215,1276,1173,1202,1112,1028,1037,1580,1272,1316,1158,1356,1168,1009,965,1398,1315,1145,1143,1659,1120,1450,918,1005,876,1196,1013,1106,1192,1719,1579,1178,1102,1047,1525,901,1088,787,1358,1358,1104,999,1037,1251,1288,1568,844,1021,1365,1605,1040,1183,1374,1456,888,1347,1307,1016,1055,1536,1286,1385,1407,1283,975,1499,1072,1468,1242,986,1065,1131,1244,962,982,1194,778,938,932,1414,899,970,1286,1550,1250,1177,1429,1034,1282,1211,1266,1388,1405,1390,1009,1150,1459,1578,1110,962,812,1086,1103,1535,1026,1395,1035,954,904,1254,1320,1478,1299,1215,1081,920,1103,1296,1381,1065,1247,1293,1163,1240,1495,1064,1467,858,744,901,927,1158,985,890,879,1023,757,1135,1727,1161,1020,1185,1398,1081,1186,1002,1208,1110,1470,967,1153,1297,1009,1288,999,1159,964,1402,1428,1562,1058,1023,1280,972,928,1625,893,1085,1166,1137,1459,1187,1054,1221,1248,1085,1138,1175,1312,1230,967,1229,937,1229,1107,1132,994,1335,1102,1220,1101,1319,1417,1426,1284,1345,1047,1209,1200,1203,1234,1522,849,1093,1185,1083,1223,1252,1587,1395,1562,1449,1357,1079,957,901,1298,987,1407,1035,1066,1352,1187,1278,1255,1063,1645,1172,957,1459,1366,1027,1206,1208,1123,871,942,972,1658,1297,1101,994,1415,1086,1145,1122,903,1018,1071,998,1104,871,1089,1163,1174,1472,1314,1341,1121,1227,1244,1489,1321,1291,1074,1286,1207,1508,1250,1218,1497,1160,1231,1307,1305,1045,1011,1157,680,988,1125,1079,845,1699,1214,1541,1118,1825,1358,1170,1116,1170,1045,1525,1257,1480,1305,1367,1278,1516,1207,1661,815,1381,937,1275,1554,1182,1349,792,907,1071,980,1172,991,1210,1091,1027,1002,1158,811,958,857,1019,1131,1068,1211,1145,1105,920,889,1161,919,1089,1102,1300,1239,1350,1397,923,1100,1370,1278,730,1012,1393,1031,1181,807,1200,1415,1289,1249,1422,1183,1546,1002,1601,1175,1297,853,1050,951,861,1175,718,1260,954,1664,754,1199,1207,1646,1319,1153,1326,1341,1204,1345,1188,1224,1261,1159,647,959,956,1461,1504,1411,980,1176,1556,1777,1383,974,983,1388,1056,901,1306,1060,1116,1125,1053,1108,1237,1121,1223,1012,1236,1600,1261,1113,1383,1131,883,904,1174,1464,1406,757,1031,1442,1018,1316,926,1301,1125,1692,1133,1120,1298,1087,1595,1572,1150,946,1106,1244,723,1024,1060,1075,1101,881,1393,1559,1125,1328,1083,920,1415,1160,1040,1522,1125,1297,1561,1358,864,1319,917,1191,1360,954,546,1492,1702,588,911,1217,841,1702,1057,1267,1218,1437,1487,886,898,1474,1248,1158,1436,1153,1052,953,1117,869,1618,1407,1066,1102,1108,1069,1389,1421,859,1095,929,1409,1595,1295,1344,1538,1116,956,1082,1430,1274,1110,1084,1178,1443,1273,1370,1096,905,1252,1082,1515,1240,1161,1648,1535,1230,1588,1241,1424,1263,1048,1512,1299,1193,962,1713,1201,1188,1648,1312,1152,1281,937,1159,1077,1029,1030,1254,1202,1077,1189,1530,1363,1159,1010,1422,1310,887,1247,1144,1185,915,808,1090,1151,831,1286,1182,1184,1194,1436,930,1166,1003,1064,1102,1188,1487,1145,992,1565,1335,1310,1081,1129,1182,1466,1419,1161,1287,1107,864,1270,1323,1256,1067,1032,898,1108,1167,1065,1066,1198,1733,1057,1241,1010,1198,1256,1036,1233,1115,1462,1145,1597,1284,1053,1049,925,1242,1453,1206,892,1123,1358,1015,1118,1288,994,1162,1284,1014,1212,1376,1314,928,849,1276,1270,1036,1308,1471,976,1566,1365,1008,1375,1063,1097,1245,1463,1152,740,1203,1181,1101,1082,1298,1189,1231,1174,1006,1162,978,1063,1216,1324,1293,1359,1360,1374,1317,1192,1471,1194,1024,1750,1290,1623,919,1656,837,1504,1177,878,1204,1307,1156,1310,1301,860,1073,1490,905,1124,995,1277,1186,957,1380,1236,1053,1068,1429,1267,1041,959,997,1326,905,1309,1346,1041,1418,1167,1635,938,1437,1013,1016,1232,951,1076,606,1633,710,1593,1580,1095,1190,1109,1172,1298,1161,932,1277,1051,1118,1370,687,1304,1415,874,1070,892,1297,1377,1099,1252,1161,907,1193,1538,1347,1270,1012,1260,915,1299,1031,1257,1059,1634,1205,1154,1213,991,1318,1597,1056,1331,1039,942,1513,1317,1031,1452,1376,1321,1538,1270,1233,1314,1258,1524,995,1200,1006,977,1489,1191,1015,1297,1213,1394,916,1410,1159,881,1199,1097,1087,1041,986,995,1035,1221,1003,1014,1137,1432,1279,1085,1041,877,1408,1208,1215,1012,1006,1027,1347,1183,1148,1125,1198,1120,1264,1196,1329,1383,1124,1356,1256,1371,1659,1329,1470,959,1134,1069,1267,1352,1505,1284,1237,1089,1032,1074,1391,1045,874,1448,961,1052,923,1354,1234,1117,1544,1140,990,1041,1040,1285,1180,1029,1587,1094,1491,1082,1155,1304,1081,1207,1087,1246,1381,1291,1800,1235,1361,991,1253,1232,1159,1604,1426,1360,1484,1387,926,1587,1290,1053,1019,859,1096,1156,1239,1689,1131,1040,1325,1295,1220,1051,1229,1250,1103,1006,1080,1130,957,1168,1064,1223,926,1308,1155,1022,1539,1069,1002,1091,616,933,1009,1019,1164,1014,1298,1622,1062,857,969,1369,1221,1175,1085,982,1010,900,1002,1281,889,1199,1650,1240,996,1106,1096,1191,1105,1234,1078,970,1071,1312,1043,1189,1183,1371,1376,1295,1254,1241,1334,947,1253,1175,1740,1732,1250,1221,1310,1547,1001,1234,1256,1059,1559,1140,1489,1270,660,1081,1442,1220,1288,1210,1035,1277,1469,1346,1318,1145,1246,1057,1417,1351,1049,1214,1574,1392,1174,1420,1206,1683,1217,1264,1244,1194,1260,1104,1338,1104,1095,901,837,1410,1044,920,1369,1121,1782,1170,1026,1296,897,954,1437,1517,1370,1105,969,1377,1211,1263,1181,1055,966,1306,1426,1400,691,1250,1074,1060,1273,1332,979,1147,1142,1335,1160,1176,1704,1076,1277,1119,1217,1382,1069,927,1272,1238,871,949,1206,1167,713,1052,1243,1213,1516,1570,738,1125,1585,969,1377,1192,1181,967,1156,1487,1240,1256,1388,1102,1297,1176,906,969,1501,1040,1391,1599,1126,1160,1122,1196,1412,1666,1098,1009,871,1109,966,1546,1040,1083,1158,1305,1260,1412,1207,792,1105,1276,1272,956,1128,1213,1109,1185,1218,1261,1151,1113,1409,1028,997,1031,1208,1096,1079,1121,1278,1367,1230,1147,1250,1619,1535,1469,1084,1138,1258,916,988,599,994,1263,1536,1097,725,1080,1475,1149,1065,1145,1439,981,946,1003,1426,1063,1073,1000,1578,1178,1370,954,1383,1046,952,1297,1313,1348,1344,897,1053,1519,1203,1309,1575,1215,1155,1556,974,1075,1177,1097,1295,1131,1035,1199,1708,1584,1156,1123,817,1101,1089,959,1361,1349,1083,887,1230,936,931,1292,1286,868,1110,1143,1403,980,1118,1088,1274,1097,1379,1585,1093,1537,1044,1207,1703,1207,1272,1337,675,1111,1140,1555,1288,926,1437,1143,1119,1652,1165,1136,1086,1174,960,1025,1125,569,1109,1056,1624,1022,1254,1277,1098,1118,1249,1176,1241,1155,972,1041,1577,1485,1604,1319,908,1195,1000,1187,1321,1201,1112,1527,1338,960,1308,911,1291,1465,1170,1341,1186,854,908,1070,1075,1052,1298,1517,1233,1069,1155,1095,1440,1320,933,982,1333,967,1269,1099,1218,1097,944,868,1062,1055,1143,1377,705,1305,911,990,1039,1494,1049,970,1122,1080,1071,1024,1616,1048,1575,1108,861,1428,1429,1411,1188,1075,1296,1111,1185,1221,1087,995,933,1303,1231,1043,1213,1172,1298,1066,1122,1042,1438,1600,1297,1094,1448,1102,1242,1364,1202,1051,1215,1466,1297,1436,859,1328,1042,917,1321,1091,1248,1175,1074,1437,1418,1128,1131,1417,1276,1226,1166,873,959,1497,1335,1144,1150,1325,1396,899,929,1032,872,1481,1121,1167,1292,1014,1132,975,1083,1419,1024,1268,836,1007,935,1054,1106,1292,1158,1181,1112,1002,1774,785,1238,1119,1274,1256,713,1322,1020,1291,1013,969,1253,856,1153,1203,1138,1499,1453,1474,1023,1508,1283,1338,928,1200,1155,1487,1077,865,1336,952,1314,1144,1052,1390,959,915,1027,1612,1135,1410,849,1322,1315,1076,1319,1465,1367,1379,1208,1344,1212,1605,1677,1051,857,1373,1091,1565,1352,1360,1409,1355,1182,1372,1230,1239,1128,1150,914,1369,1095,1205,1462,1370,1015,1269,1002,1397,1213,1113,1384,950,1254,1483,977,1162,1125,839,1360,995,1237,704,1667,1220,1088,973,1472,972,1317,1078,1055,1076,1455,902,908,1667,1274,1556,1196,1151,1401,1498,1036,1006,1062,1542,1147,1147,1443,898,1039,1402,889,1021,1096,1283,856,1653,855,914,1603,1020,907,1589,950,941,1038,1015,1008,529,1372,1066,1082,1159,1218,1293,1482,987,1482,1071,968,1189,963,918,1084,1155,972,1338,1333,1173,1005,1382,1049,1301,1001,1239,899,1095,1318,1120,1084,1317,1170,1306,1201,1017,1667,1430,1496,1305,1152,1104,1286,1300,1540,986,1404,1073,1235,1453,1337,1379,1256,1185,1192,1022,1241,1287,1577,1387,1259,1174,1310,915,1003,1190,1295,1090,870,961,1711,1208,1022,1126,1141,1147,1379,1169,1007,1202,923,1226,1431,1205,513,1042,782,1057,1296,1474,1077,1007,1652,1040,1257,986,971,989,1111,1127,1204,914,1083,1012,1145,1187,1256,1096,1053,976,1120,1350,1199,1214,1034,1244,1565,1205,1068,1166,1297,1163,988,1208,1252,973,1391,1267,1307,1207,1107,625,1131,1420,1130,1524,1061,1411,1330,997,965,966,1286,1179,1234,1298,928,1462,1848,970,1045,1275,1340,1221,1083,1153,1476,1423,1378,1372,1345,970,1243,1238,1112,1103,1040,1491,1505,877,1697,1212,1034,1312,1182,1051,991,1113,1121,1677,1155,958,1524,1592,1411,1306,1464,1678,1195,1136,1164,962,1019,1208,1440,868,1208,1142,921,1251,1223,1278,1243,1226,1212,1122,1367,1529,1177,1432,1299,1238,1166,1745,1110,1397,1518,1247,1219,1019,1333,1176,1318,1194,953,1302,920,1186,1407,1221,1075,1187,1334,1391,1558,1229,999,1224,1027,1085,1166,1157,908,1519,1000,1415,913,1187,1603,836,1110,1217,1348,1529,1155,1147,1695,1269,541,1308,1017,1101,1601,821,1456,896,1180,1307,1294,1213,1126,1177,918,1424,1290,1302,1512,1062,1193,1456,1026,1080,889,894,1066,1092,1073,1146,1111,1632,1160,1156,1205,1097,1331,916,1340,1020,1268,1220,1665,1422,1148,1315,1453,919,1023,1395,992,1132,1066,1221,1341,1401,1091,1314,1065,1157,991,1062,1113,1222,1296,1391,1184,1221,1098,1250,1207,877,940,1265,1484,1306,1311,1260,1078,845,1188,1375,1440,861,798,1552,1256,1130,1491,1014,1243,1176,823,1277,1045,1804,997,1624,990,1108,1620,1361,1174,977,882,1436,1627,1255,1153,985,1148,1046,1405,1506,1359,1423,922,1269,1267,1129,843,1330,896,1037,861,1229,1475,1417,914,1398,1244,1239,1053,1112,972,1309,1076,1150,1178,904,1278,1389,1128,896,759,1337,978,1123,1091,1145,1391,1508,1335,978,1307,1455,873,1087,1564,1147,1316,1158,1154,1230,1159,1289,1136,1633,1637,1442,1072,985,1129,1178,1270,1282,1199,1111,976,1792,1159,950,1173,1387,883,1129,1344,1433,1004,1104,1400,1319,924,1473,879,1046,1180,1396,1088,988,1079,976,787,964,1465,939,1284,1232,991,981,1161,930,1112,1168,1494,1378,1475,1389,1424,1039,1279,1184,1005,1128,1179,1143,1411,1038,924,1181,1338,1057,1482,1135,1674,1340,801,1163,977,1168,975,1206,1165,1433,1034,1005,704,1336,1059,1266,1117,882,914,1255,1269,1213,1338,834,1087,1240,1632,1446,757,1721,1176,1260,1071,907,1151,947,1233,701,1145,1335,1146,959,1126
1204,1366,1562,1242,1920,1485,1824,1566,1254,1520,1380,1298,1393,1263,1810,1499,1279,1179,1745,1610,1309,1219,1750,1408,1265,1262,1355,1693,1273,1157,1359,1564,1822,1320,1857,1250,1660,1608,1329,1192,1028,1388,1534,1338,1540,1494,1302,1150,1867,1414,1458,1195,982,973,1237,1233,1402,1784,1607,1813,1532,1461,1097,2162,1114,1585,1208,1628,1865,1581,1351,1199,1403,1293,1806,1467,1680,1796,1365,1244,1265,1510,1417,1198,1086,1429,1257,1879,1371,1174,1031,1664,1745,1745,1728,1489,1722,1565,1300,1571,1347,1252,1296,1461,1160,1491,1196,1387,1661,1084,2214,1271,1312,1362,1265,1289,1201,1695,1277,1311,1501,1584,1231,1152,1744,1968,1001,1604,1428,1637,1215,1780,1508,1449,1354,1327,1461,1443,1396,1815,1854,1272,1238,2020,1449,1335,1269,1187,1735,1421,1474,1414,1165,1584,1298,1517,1425,1418,1099,665,1235,1556,1800,1166,1450,1415,1439,1751,1783,1595,1314,1653,1387,1157,1517,1409,1347,1758,966,1777,1290,1208,1509,1968,1420,1675,1535,1463,1347,1475,1216,844,1270,1176,1335,1787,1840,1406,1189,1392,1251,1671,1811,1504,1685,1775,1492,1853,1265,1314,1591,1896,1332,1471,2024,1569,1091,1464,1811,1194,1771,1246,1356,1594,1741,1461,1634,1677,1431,1509,1881,1876,1608,1039,947,1646,1152,1472,1378,2279,1225,1553,1369,1814,1446,1358,1585,1901,1416,1129,1244,1402,1826,1221,1922,1473,1275,1488,1231,1254,984,1242,1506,1236,1174,1004,1074,1857,1592,1048,1374,1267,1619,1910,1388,1282,1946,1294,1335,1719,1726,1416,1508,1483,1692,1833,1660,1031,1310,1471,1974,1292,1253,1319,1409,1981,1525,1127,1362,1079,1745,1266,1696,1881,1600,1795,1467,1451,1754,1228,1464,1965,1126,1171,1095,1624,1699,1543,1095,1332,1303,1838,1582,1445,1688,1599,1284,1295,1206,1348,1176,1308,1656,1210,1227,1228,1407,1512,1351,1128,1321,1237,1584,1486,1236,1664,1514,1502,1617,1476,1502,1436,1703,1184,1308,951,1558,1417,1500,1230,1597,1217,1333,1295,1450,1449,1428,1312,1795,1331,1648,1573,1439,1582,1685,1188,1363,1212,1532,1576,1667,1355,1275,1218,1332,1153,1458,1500,1229,1249,1095,1041,1533,1224,1587,1309,1239,1325,1715,1333,1358,1692,1953,1431,1546,1787,1320,1507,1503,1332,1328,1220,1192,1684,1416,1533,1373,1928,1483,1186,1689,1343,1225,1264,1338,1171,1701,1409,1189,1621,994,1723,1590,1375,1562,1651,1316,1088,817,1353,1785,1443,1210,1499,1536,2127,1404,1941,2089,1767,1388,1298,1144,1232,1342,1327,1198,1523,1173,1466,1116,1232,1311,1224,1194,1483,1378,1205,1668,1534,1463,1825,1291,1033,1404,830,1360,2083,1268,1294,1270,1440,1555,1679,1813,1506,1240,1539,1317,1314,1905,1315,1241,1867,1487,1420,1612,1266,864,1603,1167,1550,1385,1355,1481,1222,1517,1480,1785,1753,1233,1565,1642,1173,1073,1440,1308,1480,1421,1531,1810,1734,939,1644,1657,1371,1413,1391,1353,1455,1460,1178,1818,1347,1290,1537,1579,1365,1481,1775,1230,1806,1420,1516,1915,1307,1295,1233,972,1611,1800,1231,1338,1505,1572,1146,1328,1561,1715,1814,1074,1790,1413,1069,1324,1385,1439,1728,1756,1278,1092,792,1455,1474,1649,1068,1368,1528,1137,1565,1324,1171,1742,1486,1721,2050,1154,1478,1538,1431,1085,1716,1375,1347,1017,1615,1506,1488,1139,1724,1776,1311,1469,1499,1125,1398,1702,1421,1449,1469,1653,1263,1508,1694,1777,1300,1416,1736,968,1640,1250,1391,1585,1264,1512,1428,1702,1655,1521,1349,1322,1446,1712,1236,1420,1335,1297,1537,1736,1733,1620,1282,1182,1417,1377,1501,1604,1383,1495,1632,2007,1720,1328,1320,1437,1700,1408,1486,1645,1943,1110,1203,1334,1880,1532,1204,1980,1414,1008,1370,1437,1560,1581,1692,1415,1598,1058,1181,1775,1289,1971,1165,1374,1599,1337,1463,1489,1257,1561,1369,1785,1461,1496,1341,1879,1843,1586,1278,1334,1719,1199,1185,1598,1198,1326,1312,1313,1616,1379,1240,1116,1636,1079,1520,1368,1432,1266,1263,1155,1794,1270,1214,1798,1775,1695,1920,2329,1378,992,1656,1498,1411,1464,1457,1181,2030,1360,1450,1519,1527,1390,1495,1537,1444,1614,1336,2050,1688,1142,1233,1232,1557,1446,904,1528,1403,1523,1272,1531,1087,1428,1099,1161,1508,1688,1385,1622,1444,1545,1083,1381,1053,1726,1793,1335,1839,1559,1542,1402,1384,1104,1558,1290,1290,1584,1634,1434,1483,1342,1374,1529,1428,1408,1187,1549,1399,1128,1318,1264,1652,1509,1376,1628,2059,1114,1483,1645,1283,1414,1541,1908,1071,1258,1226,904,1414,1337,1450,1293,992,1725,1211,1440,1717,1415,1448,1320,1552,1380,1953,1842,1132,1740,1452,1576,1459,1380,1564,1147,1320,1457,1688,1046,1414,1665,1871,1483,1525,1608,1094,1049,1232,1260,1345,1371,1379,1672,1688,1430,1425,1328,1723,1473,1012,1137,1273,1583,1168,1905,1237,1545,1515,1563,1349,1288,1095,1566,1409,1374,1380,1584,1513,1222,1477,1435,1632,1519,1649,1828,1832,1430,1419,1525,1670,1473,1450,1143,1307,1556,1695,1508,1371,1181,1520,1136,1575,1209,1609,1156,1484,1662,1353,1332,1426,1247,1610,1826,1398,1434,1315,1315,1242,1660,1381,1515,1456,1964,1422,1283,1253,1380,1370,1673,1881,1386,1627,1456,1521,1445,1460,1343,1281,1285,1915,1524,1564,1506,1658,1427,1234,1175,1700,1606,1378,1392,1993,1342,1758,1102,1272,1072,1434,1251,1379,1464,2046,1900,1415,1368,1294,1857,1143,1320,965,1680,1622,1175,1236,1293,1495,1538,1886,1035,1227,1633,1963,1257,1413,1634,1771,1098,1624,1612,1226,1293,1851,1537,1659,1677,1534,1159,1801,1311,1759,1493,1214,1285,1344,1505,1168,1208,1452,1055,1122,1133,1707,1099,1197,1609,1843,1565,1421,1734,1284,1561,1450,1516,1673,1690,1667,1225,1420,1767,1882,1340,1176,995,1303,1310,1856,1265,1687,1245,1249,1022,1596,1566,1791,1555,1505,1330,1127,1354,1563,1655,1332,1420,1642,1439,1496,1827,1305,1796,1075,927,1030,1133,1395,1189,1065,1077,1255,967,1422,2043,1361,1252,1410,1736,1270,1419,1224,1498,1333,1760,1153,1413,1568,1256,1576,1188,1408,1185,1719,1755,1906,1381,1264,1547,1178,1126,1964,1395,1230,1434,1382,1802,1290,1283,1543,1542,1304,1403,1430,1589,1471,1187,1491,1130,1493,1341,1415,1254,1615,1323,1493,1313,1567,1733,1762,1550,1614,1293,1456,1444,1453,1564,1864,1035,1329,1403,1327,1480,1512,1911,1696,1903,1729,1639,1313,1149,1108,1595,1218,1720,1242,1300,1702,1458,1560,1528,1272,1971,1418,1145,1753,1645,1263,1440,1415,1336,1113,1148,1200,1984,1571,1345,1227,1692,1389,1394,1184,1044,1233,1215,1217,1316,1061,1271,1444,1421,1820,1567,1642,1373,1467,1531,1778,1596,1596,1299,1543,1447,1790,1524,1499,1807,1383,1497,1557,1566,1273,1216,1395,916,1213,1355,1303,1034,1906,1477,1880,1338,2123,1647,1417,1349,1399,1303,1817,1542,1765,1574,1639,1564,1814,1373,1995,1044,1657,1145,1557,1865,1394,1615,988,1179,1346,1184,1450,1212,1449,1316,1251,1209,1428,989,1146,1075,1246,1400,1274,1451,1423,1317,1135,1093,1420,1113,1342,1444,1575,1545,1665,1677,1116,1335,1689,1534,853,1157,1663,1237,1368,993,1435,1752,1578,1492,1700,1414,1841,1214,1860,1416,1530,1056,1285,1162,937,1425,869,1529,1167,1995,972,1468,1448,1985,1600,1415,1584,1614,1452,1597,1449,1471,1546,1426,777,1168,1171,1743,1855,1698,1209,1461,1874,2122,1650,1189,1176,1658,1329,1114,1587,1315,1338,1364,1291,1360,1506,1362,1474,1236,1498,1887,1565,1360,1456,1389,1085,1117,1412,1744,1704,959,1246,1724,1241,1561,1129,1587,1345,2038,1396,1339,1569,1327,1917,1921,1371,1147,1318,1485,816,1226,1294,1300,1346,1139,1712,1885,1354,1588,1357,1157,1750,1380,1274,1838,1405,1581,1875,1662,1078,1584,1103,1445,1669,1152,779,1824,2054,639,1102,1485,1029,2046,1299,1538,1454,1752,1788,1121,1111,1775,1514,1514,1776,1375,1262,1144,1334,1055,1922,1681,1274,1334,1430,1286,1714,1740,1055,1346,1153,1705,1903,1599,1612,1844,1371,1181,1284,1731,1526,1337,1341,1458,1751,1588,1692,1356,1105,1518,1321,1804,1516,1421,1958,1837,1506,1899,1521,1718,1506,1259,1614,1652,1461,1196,2042,1473,1443,1972,1594,1428,1562,1151,1414,1323,1254,1319,1505,1458,1324,1430,1843,1649,1406,1231,1769,1571,1051,1492,1367,1465,1103,1004,1332,1405,939,1568,1424,1460,1422,1739,1127,1419,1211,1284,1351,1455,1822,1393,1194,1877,1591,1611,1284,1393,1404,1764,1755,1373,1570,1344,1050,1526,1627,1614,1348,1236,1102,1338,1404,1308,1297,1436,2078,1272,1516,1205,1457,1465,1255,1524,1353,1785,1394,1902,1527,1301,1273,1133,1549,1740,1483,1081,1382,1628,1236,1382,1555,1270,1384,1553,1239,1492,1663,1612,1107,1019,1571,1507,1262,1545,1775,1206,1908,1624,1252,1653,1259,1421,1524,1770,1397,971,1472,1403,1344,1295,1527,1467,1425,1408,1222,1457,1069,1292,1460,1630,1580,1641,1638,1646,1590,1445,1750,1462,1338,2107,1544,1954,1120,2009,1033,1828,1410,1057,1479,1536,1436,1584,1560,1056,1133,1813,1102,1343,1130,1599,1453,1163,1681,1510,1262,1307,1683,1529,1247,1158,1232,1603,1123,1568,1633,1269,1723,1422,1964,1145,1769,1127,1224,1520,1154,1313,735,1962,880,1912,1934,1311,1426,1344,1421,1592,1430,1117,1528,1258,1360,1659,879,1582,1704,1063,1307,1085,1557,1626,1362,1513,1414,1107,1476,1869,1623,1520,1243,1548,1123,1545,1300,1546,1294,1985,1275,1407,1466,1179,1574,1956,1305,1618,1248,1149,1814,1579,1268,1734,1651,1608,1867,1564,1493,1550,1522,1864,1258,1324,1214,1202,1763,1421,1264,1570,1496,1701,1122,1694,1386,1078,1480,1341,1301,1242,1203,1265,1289,1469,1229,1203,1217,1717,1535,1324,1309,1074,1693,1465,1464,1214,1221,1248,1693,1445,1401,1360,1567,1387,1545,1454,1618,1651,1359,1636,1507,1683,2010,1603,1783,1163,1447,1311,1525,1625,1811,1527,1515,1334,1268,1309,1647,1290,1063,1749,1226,1285,1114,1658,1486,1368,1836,1364,1221,1255,1249,1565,1449,1250,1908,1337,1791,1333,1398,1559,1324,1470,1307,1499,1665,1562,2135,1466,1678,1187,1530,1522,1419,1956,1719,1625,1786,1688,1014,1907,1568,1284,1241,963,1369,1388,1505,2028,1387,1248,1634,1558,1517,1292,1500,1490,1390,1205,1353,1324,1194,1384,1339,1507,1140,1567,1419,1237,1852,1302,1233,1315,873,1148,1222,1223,1437,1209,1590,1931,1299,1073,1175,1669,1498,1443,1331,1169,1237,1092,1206,1594,1089,1479,1974,1514,1187,1355,1324,1440,1344,1466,1299,1173,1278,1592,1240,1484,1404,1653,1644,1573,1550,1485,1572,1193,1526,1448,2102,2056,1530,1462,1562,1852,1174,1483,1563,1274,1869,1370,1805,1562,939,1311,1761,1468,1512,1462,1289,1523,1752,1608,1580,1420,1482,1288,1742,1606,1253,1496,1892,1666,1406,1717,1472,1996,1463,1518,1513,1450,1518,1318,1605,1364,1327,1114,1095,1745,1273,1126,1665,1219,2129,1404,1300,1545,1120,1166,1757,1881,1680,1317,1321,1666,1452,1576,1425,1315,1158,1560,1724,1732,895,1494,1277,1281,1615,1590,1171,1414,1398,1601,1377,1414,2059,1329,1557,1334,1454,1670,1315,1132,1555,1464,1059,1156,1444,1421,910,1351,1538,1465,1807,1878,975,1375,1875,1181,1697,1402,1419,1178,1390,1851,1545,1512,1712,1341,1591,1686,1121,1149,1795,1289,1655,1905,1354,1449,1328,1504,1675,2003,1310,1215,1073,1369,1213,1862,1277,1369,1394,1588,1545,1666,1469,866,1334,1529,1534,1171,1372,1463,1429,1464,1431,1524,1393,1363,1665,1244,1222,1246,1471,1338,1306,1372,1570,1641,1523,1426,1534,1945,1852,1757,1340,1390,1558,1156,1180,724,1197,1519,1818,1311,992,1331,1816,1393,1321,1388,1735,1202,1162,1236,1712,1304,1307,1235,1909,1406,1686,1161,1695,1277,1172,1572,1648,1623,1646,1140,1312,1834,1431,1582,1925,1441,1404,1848,1161,1314,1428,1336,1553,1371,1290,1419,2036,1909,1407,1425,928,1344,1297,1146,1661,1619,1327,1155,1515,1146,1143,1565,1550,1074,1371,1387,1735,1196,1363,1317,1544,1321,1651,1894,1325,1898,1290,1462,2048,1491,1570,1606,836,1371,1390,1865,1557,1118,1745,1381,1366,1955,1446,1359,1324,1418,1161,1222,1360,707,1366,1283,1900,1262,1574,1559,1314,1353,1501,1443,1538,1407,1196,1271,1890,1809,1906,1586,1098,1501,1209,1444,1601,1418,1441,1855,1616,1168,1574,1114,1546,1766,1514,1656,1426,1097,1094,1307,1282,1292,1619,1840,1474,1323,1411,1339,1765,1634,1152,1187,1614,1169,1539,1185,1462,1342,1157,1064,1317,1254,1408,1694,890,1604,1110,1208,1281,1842,1344,1175,1344,1314,1309,1278,1949,1278,1919,1327,1119,1724,1728,1695,1427,1311,1576,1341,1423,1475,1309,1213,1131,1597,1483,1260,1494,1440,1583,1283,1383,1276,1733,1931,1570,1310,1753,1311,1522,1684,1422,1287,1463,1750,1584,1699,1049,1594,1281,1125,1552,1329,1550,1430,1305,1772,1702,1363,1337,1695,1547,1494,1407,1076,1059,1833,1660,1424,1408,1631,1672,1093,1137,1251,1074,1758,1376,1433,1604,1238,1355,1178,1331,1726,1249,1525,1094,1228,1143,1280,1374,1542,1378,1474,1341,1244,2119,1022,1483,1427,1537,1518,884,1585,1236,1561,1212,1166,1492,1049,1409,1457,1392,1862,1765,1780,1266,1803,1539,1612,1159,1430,1377,1773,1335,1058,1659,1137,1587,1348,1283,1696,1132,1111,1287,1919,1398,1739,1040,1614,1590,1377,1587,1751,1663,1688,1467,1641,1467,1961,2000,1284,1054,1651,1335,1868,1625,1668,1692,1615,1475,1675,1493,1519,1363,1395,1106,1668,1366,1463,1759,1722,1230,1539,1228,1631,1445,1355,1669,1183,1550,1811,1212,1392,1393,1083,1644,1211,1500,914,2007,1476,1196,1196,1722,1184,1577,1391,1295,1286,1758,1117,976,2016,1515,1852,1478,1395,1727,1821,1265,1248,1295,1859,1410,1399,1758,1098,1283,1702,1089,1260,1315,1544,1064,1992,1112,1149,1916,1231,1096,1902,1168,1149,1283,1216,1282,714,1667,1314,1301,1395,1465,1553,1787,1178,1781,1301,1244,1466,1299,1102,1321,1405,1177,1606,1609,1441,1218,1688,1251,1669,1220,1486,1105,1317,1623,1380,1397,1586,1393,1607,1462,1167,2035,1704,1830,1560,1405,1362,1623,1593,1867,1219,1680,1276,1482,1743,1594,1643,1547,1461,1440,1248,1492,1542,1915,1654,1530,1434,1515,1103,1056,1453,1569,1243,1070,1183,2072,1470,1224,1395,1408,1390,1680,1463,1211,1454,1133,1460,1757,1468,608,1279,893,1307,1583,1696,1332,1216,1928,1259,1554,1195,1230,1196,1364,1389,1488,1245,1335,1218,1272,1422,1512,1347,1288,1183,1374,1669,1473,1491,1258,1493,1879,1468,1353,1429,1576,1416,1259,1454,1549,1176,1678,1560,1588,1432,1330,796,1355,1705,1410,1871,1299,1736,1596,1221,1151,1185,1542,1432,1528,1602,1124,1759,2209,1176,1281,1519,1621,1513,1309,1438,1772,1697,1692,1664,1639,1175,1513,1520,1354,1358,1267,1779,1836,1126,2048,1469,1260,1572,1431,1380,1212,1378,1383,2024,1408,1169,1856,1933,1778,1558,1770,2010,1437,1362,1431,1181,1226,1471,1763,1070,1472,1381,1128,1539,1483,1525,1525,1482,1468,1353,1669,1852,1411,1759,1556,1499,1446,2129,1327,1703,1837,1500,1378,1265,1661,1457,1583,1446,1165,1598,1126,1445,1649,1481,1307,1453,1641,1664,1855,1483,1209,1455,1257,1369,1422,1375,1316,1825,1209,1741,1111,1426,1934,991,1364,1450,1630,1834,1396,1235,2031,1573,655,1588,1238,1337,1915,1076,1754,1135,1424,1606,1572,1466,1378,1419,1137,1692,1540,1359,1850,1317,1469,1751,1248,1334,1083,1157,1304,1343,1346,1442,1354,1957,1436,1374,1495,1333,1601,1117,1406,1105,1565,1457,1999,1738,1405,1585,1729,1117,1229,1676,1222,1361,1276,1491,1617,1729,1384,1596,1310,1373,1211,1264,1362,1494,1597,1668,1434,1488,1321,1521,1459,1070,1152,1517,1810,1567,1561,1501,1176,1023,1441,1675,1726,1052,1028,1895,1523,1372,1781,1226,1538,1418,1017,1556,1274,2159,1223,1951,1221,1331,1917,1648,1406,1205,1066,1737,1940,1505,1417,1192,1382,1266,1686,1803,1640,1716,1102,1536,1415,1380,1033,1627,1087,1336,1053,1466,1785,1697,1099,1675,1502,1482,1289,1353,1177,1568,1318,1419,1437,1145,1535,1680,1353,1153,927,1634,1171,1343,1398,1389,1660,1806,1590,1197,1559,1729,1092,1294,1953,1390,1642,1416,1401,1463,1457,1561,1389,1968,1958,1720,1321,1200,1390,1415,1553,1545,1432,1357,1192,2140,1420,1140,1415,1675,1073,1355,1618,1688,1207,1361,1698,1594,1109,1787,1074,1278,1451,1684,1298,1187,1343,1187,983,1348,1764,1158,1555,1527,1227,1201,1411,1134,1356,1393,1820,1704,1822,1654,1738,1256,1547,1470,1204,1374,1442,1404,1701,1299,1112,1448,1587,1305,1814,1389,2001,1592,1110,1397,1182,1408,1187,1446,1411,1747,1241,1209,910,1600,1308,1522,1368,989,1090,1517,1516,1487,1599,1024,1330,1527,1915,1771,974,2204,1397,1586,1305,1113,1374,1216,1480,871,1382,1646,1405,1160,1379
1459,1590,1834,1472,2246,1739,2145,1837,1660,1752,1609,1528,1624,1357,2107,1749,1514,1373,2076,1928,1554,1444,2046,1697,1509,1458,1586,2015,1563,1329,1576,1815,2120,1578,2177,1466,1938,1907,1570,1390,1239,1635,1782,1580,1813,1775,1513,1397,2142,1642,1759,1413,1154,1245,1453,1445,1661,2088,1869,2146,1822,1729,1281,2524,1308,1845,1413,1931,2128,1893,1639,1402,1747,1526,2127,1761,2009,2144,1630,1475,1489,1851,1674,1395,1292,1694,1481,2200,1584,1374,1301,2009,2043,2063,2033,1742,2039,1795,1530,1870,1603,1473,1536,1704,1347,1780,1420,1646,1930,1273,2568,1501,1561,1632,1519,1513,1424,2014,1487,1527,1783,1833,1446,1355,2061,2279,1178,1861,1650,1906,1438,2085,1798,1710,1621,1573,1727,1700,1651,2114,2166,1584,1474,2349,1709,1558,1670,1432,1983,1669,1767,1684,1270,1860,1499,1760,1679,1697,1293,771,1467,1810,2098,1416,1673,1664,1701,2042,2080,1852,1554,1964,1617,1370,1791,1665,1636,2108,1148,2108,1551,1433,1817,2198,1668,1975,1805,1734,1605,1720,1489,947,1496,1440,1581,2085,2143,1660,1397,1676,1438,1955,2119,1767,1977,2072,1764,2193,1519,1516,1860,2234,1601,1746,2368,1863,1275,1714,2117,1411,2060,1451,1607,1879,2080,1740,1939,1954,1678,1790,2199,2203,1877,1228,1126,1790,1349,1709,1637,2646,1440,1801,1608,2143,1726,1606,1879,2214,1686,1310,1469,1670,2160,1424,2258,1716,1508,1782,1440,1488,1159,1442,1784,1470,1379,1182,1267,2177,1859,1245,1598,1474,1928,2225,1617,1367,2279,1533,1558,2013,2033,1677,1775,1767,1979,2149,1934,1215,1534,1722,2278,1513,1483,1579,1654,2334,1797,1303,1599,1275,2036,1485,1993,2102,1863,2125,1701,1718,2072,1466,1729,2303,1314,1374,1281,1871,1972,1813,1320,1539,1517,2153,1847,1703,2000,1863,1499,1534,1416,1574,1361,1593,1925,1459,1434,1455,1691,1771,1572,1324,1555,1471,1880,1748,1453,1953,1772,1768,1908,1706,1763,1663,1990,1399,1459,1032,1808,1675,1740,1455,1878,1472,1566,1517,1703,1679,1693,1582,2134,1582,1963,1856,1674,1819,1986,1413,1585,1340,1812,1863,1943,1588,1510,1452,1555,1360,1724,1767,1241,1465,1276,1234,1810,1446,1869,1543,1486,1549,2032,1591,1610,1975,2257,1675,1834,2113,1541,1746,1712,1540,1586,1434,1430,1967,1638,1781,1587,2253,1707,1466,1969,1539,1439,1503,1578,1373,1984,1571,1392,1887,1166,2024,1862,1601,1827,1948,1595,1293,953,1576,2115,1716,1432,1763,1788,2475,1667,2264,2448,2079,1641,1488,1356,1487,1547,1540,1388,1802,1395,1718,1307,1428,1542,1428,1419,1716,1617,1452,1932,1796,1717,2133,1504,1222,1677,1034,1590,2414,1507,1533,1502,1713,1910,2006,2162,1777,1452,1808,1541,1596,2253,1531,1455,2183,1725,1665,1880,1505,1049,1887,1415,1832,1639,1601,1768,1518,1751,1730,2071,2039,1475,1857,1914,1390,1315,1730,1516,1717,1672,1790,2151,2032,1123,1909,1903,1616,1664,1657,1598,1697,1714,1381,2424,1602,1508,1827,1853,1592,1726,2098,1530,2152,1677,1797,2249,1407,1502,1481,1198,1873,2148,1475,1578,1761,1843,1352,1552,1845,2013,2145,1287,2177,1662,1286,1567,1629,1693,2081,2082,1483,1304,1056,2102,1762,1946,1255,1624,1800,1352,1836,1554,1386,2026,1765,1990,2404,1373,1714,1798,1657,1291,2044,1629,1571,1275,1914,1765,1598,1323,2010,2062,1543,1605,1744,1324,1659,2015,1667,1686,1728,1914,1490,1777,2013,2072,1520,1651,2028,1173,1935,1476,1629,1858,1492,1783,1664,2000,1935,1793,1616,1592,1692,2028,1442,1667,1564,1542,1773,2053,2036,1893,1486,1373,1634,1630,1761,1887,1650,1732,1914,2353,2024,1557,1558,1723,2000,1741,1771,1926,2287,1354,1456,1567,2207,1826,1412,2289,1639,1111,1609,1703,1821,1854,1985,1647,1676,1257,1426,2091,1537,2320,1362,1676,1859,1452,1674,1733,1551,1861,1623,2112,1741,1760,1566,2192,2181,1841,1504,1566,2031,1427,1312,1901,1433,1538,1550,1534,1890,1630,1462,1332,1919,1268,1785,1609,1667,1458,1498,1357,2104,1502,1428,2109,2083,2000,2226,2691,1639,1194,1970,1788,1655,1704,1693,1408,2363,1586,1716,1776,1807,1655,1759,1786,1680,1923,1551,2405,1955,1367,1452,1437,1834,1691,1095,1804,1673,1800,1531,1810,1276,1654,1360,1362,1793,1943,1654,1903,1644,1827,1267,1619,1271,2052,2119,1567,2184,1842,1811,1675,1618,1296,1822,1480,1590,1840,1910,1704,1769,1595,1608,1822,1651,1640,1401,1803,1628,1326,1556,1567,1889,1760,1640,1925,2419,1354,1651,1936,1517,1673,1805,2254,1273,1527,1460,1016,1677,1596,1761,1525,1177,2013,1422,1696,2002,1678,1673,1564,1809,1639,2285,2160,1360,2041,1699,1848,1706,1604,1658,1372,1565,1704,1976,1329,1651,1952,2200,1734,1794,1883,1294,1457,1456,1472,1570,1699,1616,1976,2013,1656,1692,1571,2032,1720,1192,1368,1501,1842,1386,2259,1438,1814,1796,1850,1593,1503,1335,1791,1674,1594,1611,1869,1786,1417,1719,1709,1941,1744,1942,2129,2155,1662,1655,1781,1963,1713,1699,1360,1361,1822,1977,1750,1608,1410,1727,1350,1847,1424,1868,1355,1749,1915,1662,1578,1660,1475,1918,2181,1631,1730,1565,1533,1446,1921,1623,1796,1739,2293,1691,1485,1542,1604,1591,1954,2190,1635,1913,1703,1781,1715,1713,1574,1543,1526,2233,1774,1796,1608,1950,1694,1469,1379,1998,1884,1600,1642,2349,1559,2066,1288,1541,1269,1673,1492,1660,1742,2385,2208,1648,1665,1543,2168,1388,1554,1144,2073,1887,1234,1471,1544,1740,1790,2193,1227,1438,1892,2321,1480,1640,1904,2087,1309,1902,1911,1394,1527,2162,1803,1924,1962,1788,1336,2103,1546,2058,1737,1444,1509,1559,1761,1374,1434,1710,1333,1305,1349,2006,1300,1424,1894,2139,1877,1664,2031,1520,1842,1696,1747,1882,1964,1968,1437,1691,2071,2109,1569,1387,1179,1522,1517,2164,1502,1978,1459,1538,1111,1919,1816,2102,1813,1797,1578,1388,1603,1830,1948,1601,1499,1973,1717,1747,2175,1558,2123,1297,1183,1224,1339,1635,1432,1366,1275,1483,1178,1633,2360,1579,1487,1673,2062,1460,1648,1443,1794,1555,2045,1350,1648,1845,1524,1890,1379,1662,1404,2044,2074,2256,1676,1503,1798,1381,1331,2305,1901,1502,1702,1598,2138,1462,1513,1867,1825,1522,1673,1682,1868,1712,1398,1752,1322,1746,1568,1693,1513,1895,1546,1781,1536,1825,2036,2081,1816,1884,1551,1705,1682,1709,1847,2185,1219,1560,1660,1571,1724,1782,2240,2008,2233,1992,1925,1536,1349,1319,1893,1445,2025,1447,1537,1980,1735,1842,1803,1476,2322,1661,1336,2047,1917,1529,1674,1670,1551,1355,1351,1432,2313,1818,1580,1388,1970,1694,1670,1403,1306,1451,1292,1443,1543,1247,1550,1723,1674,2151,1820,1945,1629,1722,1833,2066,1858,1901,1526,1769,1689,2092,1801,1777,2115,1608,1755,1815,1817,1500,1425,1672,1153,1436,1585,1528,1228,2166,1744,2227,1551,2413,1944,1667,1585,1626,1562,2138,1832,2053,1849,1911,1835,2085,1536,2338,1273,1934,1348,1840,2171,1599,2154,1184,1457,1615,1383,1719,1420,1690,1538,1476,1422,1700,1165,1335,1292,1476,1674,1480,1695,1704,1528,1351,1296,1672,1303,1602,1783,1849,1804,1994,1966,1315,1567,2007,1791,1111,1408,1923,1438,1571,1183,1673,2079,1873,1733,1981,1645,2138,1426,2123,1661,1747,1276,1532,1374,1081,1663,972,1797,1376,2314,1193,1746,1712,2322,1854,1680,1849,1889,1696,1850,1713,1719,1785,1694,980,1376,1384,2032,2202,1987,1498,1747,2192,2469,1909,1425,1376,1943,1635,1335,1864,1584,1563,1599,1504,1610,1772,1611,1722,1462,1760,2190,1869,1614,1596,1647,1292,1337,1653,2022,2069,1159,1459,2005,1464,1811,1339,1876,1569,2386,1661,1560,1848,1573,2235,2272,1591,1347,1527,1720,933,1432,1528,1525,1581,1367,2027,2229,1578,1848,1644,1303,2092,1597,1511,2208,1684,1864,2178,1969,1291,1840,1289,1700,1976,1347,1011,2151,2399,788,1293,1754,1393,2366,1519,1809,1691,2069,2085,1306,1320,2075,1783,1832,2063,1601,1467,1335,1551,1241,2224,1968,1469,1565,1753,1507,2049,2048,1254,1596,1375,2007,2267,1894,1877,2157,1626,1403,1465,2027,1779,1557,1602,1732,2045,1909,2012,1605,1305,1774,1584,2094,1790,1683,2267,2141,1801,2220,1803,2011,1764,1466,1939,1987,1733,1431,2374,1742,1701,2302,1875,1727,1848,1362,1667,1561,1484,1603,1765,1731,1571,1669,2163,1935,1653,1449,2092,1825,1253,1735,1590,1720,1289,1201,1592,1662,1127,1854,1678,1724,1674,2043,1326,1674,1427,1506,1599,1723,2089,1619,1412,2173,1846,1905,1484,1523,1624,2035,2053,1633,1848,1583,1241,1759,1920,1980,1571,1436,1337,1570,1641,1501,1528,1670,2424,1494,1778,1401,1709,1739,1474,1826,1597,2109,1639,2228,1785,1541,1494,1348,1857,2033,1767,1269,1649,1904,1459,1647,1816,1551,1600,1789,1460,1771,1954,1909,1304,1188,1854,1753,1492,1773,2076,1425,2255,1873,1506,1938,1457,1721,1792,2061,1643,1199,1737,1623,1589,1507,1771,1737,1812,1651,1439,1769,1310,1517,1701,1936,1871,1965,1907,1907,1864,1699,2007,1732,1639,2477,1798,2275,1323,2345,1228,2154,1626,1248,1758,1969,1599,1856,1818,1251,1352,2141,1299,1568,1259,1919,1719,1371,1950,1789,1471,1542,1933,1814,1451,1353,1469,1878,1339,1836,1905,1489,2032,1682,2294,1349,2041,1303,1426,1825,1364,1544,811,2286,1052,2230,2284,1524,1668,1575,1685,1892,1689,1304,1779,1470,1603,1944,1071,1868,1992,1265,1549,1275,1818,1914,1617,1782,1669,1310,1762,2193,1893,1768,1466,1716,1340,1791,1568,1856,1531,2331,1454,1657,1713,1369,1829,2308,1555,1892,1476,1356,2106,1840,1503,2015,1927,1893,2202,1863,1755,1858,1772,2204,1507,1567,1415,1424,2035,1652,1498,1843,1780,2007,1331,1983,1646,1273,1762,1579,1518,1448,1426,1540,1543,1713,1450,1392,1278,2004,1790,1564,1571,1278,1985,1714,1719,1419,1437,1471,2035,1705,1660,1585,1913,1658,1825,1717,1913,1912,1589,1922,1775,1963,2367,1882,2098,1368,1762,1550,1787,1908,2116,1767,1785,1572,1511,1545,1913,1533,1263,2048,1439,1522,1310,1964,1737,1630,2131,1581,1449,1471,1456,1846,1704,1475,2223,1586,2085,1580,1648,1819,1592,1743,1528,1763,1945,1693,2468,1690,1985,1383,1814,1807,1665,2306,2012,1886,2088,2009,1287,2229,1849,1514,1465,1155,1651,1621,1767,2373,1648,1443,1908,1811,1817,1538,1751,1755,1669,1410,1621,1518,1429,1598,1613,1798,1353,1827,1682,1450,2160,1529,1461,1533,1219,1365,1435,1427,1706,1406,1906,2254,1540,1293,1383,1954,1767,1712,1579,1357,1471,1282,1400,1914,1285,1756,2263,1787,1378,1607,1552,1689,1584,1701,1523,1377,1487,1884,1437,1775,1635,1936,1912,1851,1847,1727,1808,1432,1802,1720,2463,2377,1797,1700,1832,2170,1372,1732,1869,1492,2166,1585,2119,1843,1214,1543,2076,1719,1745,1739,1553,1770,2006,1865,1842,1693,1715,1518,2063,1870,1459,1785,2215,1939,1634,2008,1735,2341,1710,1769,1802,1706,1772,1529,1874,1616,1593,1333,1348,2077,1502,1327,1987,1457,2473,1637,1538,1790,1347,1380,2086,2208,1984,1530,1666,1958,1700,1852,1670,1583,1353,1818,2022,2055,1102,1740,1478,1502,1960,1854,1363,1681,1658,1878,1603,1633,2430,1581,1837,1552,1692,1948,1578,1353,1840,1686,1244,1390,1695,1671,1112,1511,1836,1717,1890,2177,1213,1625,2157,1392,2316,1648,1693,1393,1622,2177,1849,1768,2018,1578,1884,1934,1360,1327,2089,1546,1933,2193,1580,1752,1536,1808,1944,2331,1521,1418,1277,1625,1459,2178,1513,1662,1627,1879,1839,1912,1726,1033,1559,1763,1800,1382,1618,1737,1746,1747,1655,1784,1631,1616,1926,1461,1448,1459,1730,1578,1555,1617,1864,1915,1808,1673,1834,2283,2159,2038,1598,1641,1858,1404,1370,806,1400,1775,2121,1528,1247,1584,1975,1642,1595,1632,2037,1434,1380,1468,1989,1538,1529,1469,2254,1627,1983,1371,1985,1507,1388,1854,1966,1885,1947,1385,1562,2154,1659,1882,2277,1704,1694,2160,1350,1561,1679,1568,1816,1618,1546,1641,2326,2230,1659,1650,1007,1587,1503,1327,1973,1902,1580,1435,1804,1432,1327,1837,1800,1285,1631,1632,2067,1408,1610,1553,1799,1545,1930,2195,1580,2254,1528,1734,2390,1773,1862,1867,985,1636,1597,2173,1824,1308,2046,1620,1619,2272,1729,1587,1553,1666,1363,1418,1591,907,1624,1510,2275,1507,1897,1839,1530,1592,1760,1729,1839,1656,1419,1495,2194,2140,2202,1852,1290,1788,1422,1703,1857,1737,1734,2180,1905,1378,1844,1318,1839,2067,1644,2006,1669,1347,1281,1544,1488,1542,1920,2161,1702,1579,1674,1576,2036,1945,1371,1390,1890,1380,1807,1297,1703,1593,1374,1258,1573,1499,1672,2008,1076,1907,1310,1428,1550,2178,1657,1377,1563,1563,1554,1531,2295,1511,2276,1548,1375,2004,2017,1978,1662,1548,1858,1572,1666,1749,1529,1445,1334,1892,1720,1481,1769,1712,1866,1501,1646,1509,2025,2258,1855,1524,2053,1524,1798,2012,1642,1520,1701,2034,1852,1976,1241,1884,1520,1335,1827,1551,1868,1684,1546,2109,1992,1607,1568,1976,1819,1765,1654,1278,1331,2178,1969,1710,1633,1946,1951,1305,1354,1468,1281,2038,1644,1697,1918,1467,1578,1380,1572,2025,1471,1785,1354,1444,1373,1491,1641,1792,1598,1756,1574,1476,2470,1264,1727,1709,1817,1795,1125,1811,1451,1826,1409,1362,1732,1244,1672,1716,1645,2223,2072,2094,1506,2102,1797,1863,1373,1661,1600,2050,1605,1250,1966,1318,1868,1552,1514,2000,1312,1306,1542,2234,1664,2054,1233,1906,1873,1673,1859,2041,1966,2008,1725,1937,1752,2328,2329,1496,1252,1950,1582,2167,1895,1971,1963,1873,1749,1987,1783,1797,1594,1638,1297,1954,1641,1716,2040,2074,1453,1811,1452,1875,1681,1599,1960,1419,1848,2142,1440,1625,1664,1327,1924,1427,1760,1113,2345,1733,1464,1421,1995,1389,1827,1707,1533,1497,2057,1335,1387,2370,1759,2134,1740,1638,2047,2140,1564,1496,1533,2048,1676,1619,2102,1298,1535,1993,1289,1518,1529,1818,1271,2336,1364,1388,2233,1439,1290,2216,1392,1357,1530,1414,1644,897,1951,1565,1521,1627,1709,1815,2095,1372,2070,1532,1528,1744,1609,1285,1557,1663,1387,1877,1903,1713,1429,2027,1450,1945,1447,1736,1312,1540,1925,1642,1713,1868,1619,1905,1723,1408,2249,1981,2158,1806,1655,1625,1720,1863,2190,1451,1964,1491,1728,2062,1851,1909,1831,1747,1678,1474,1789,1771,2257,2003,1802,1699,1673,1291,1266,1732,1848,1388,1270,1405,2392,1754,1431,1670,1677,1641,1988,1778,1414,1708,1346,1699,2068,1751,789,1525,1012,1569,1867,1818,1582,1423,2253,1473,1844,1403,1475,1406,1624,1651,1776,1579,1587,1424,1421,1641,1762,1601,1524,1388,1634,2002,1746,1766,1480,1741,2204,1737,1656,1689,1842,1660,1528,1701,1856,1379,1967,1856,1874,1655,1547,935,1576,1978,1692,2236,1630,2059,1857,1451,1338,1400,1793,1692,1827,1919,1322,2059,2571,1376,1529,1769,1913,1812,1533,1728,2068,1973,2014,1941,1716,1376,1776,1813,1594,1616,1493,2070,2160,1380,2402,1723,1491,1829,1676,1701,1441,1626,1621,2359,1684,1374,2182,2273,2142,1811,2064,2344,1682,1590,1703,1397,1438,1724,2084,1272,1737,1628,1338,1822,1789,1793,1811,1741,1735,1585,1980,2164,1643,2062,1823,1758,1720,2486,1535,2009,2151,1743,1468,1511,1986,1735,1848,1692,1383,1889,1338,1697,1915,1737,1541,1720,1951,1931,2158,1731,1420,1575,1480,1658,1675,1589,1751,2138,1431,2066,1303,1664,2276,1213,1603,1685,1905,2153,1695,1402,2372,1885,772,1886,1464,1576,2226,1341,2043,1376,1666,1907,1858,1712,1628,1687,1338,1959,1791,1647,2194,1559,1743,2042,1460,1583,1270,1421,1541,1556,1625,1712,1597,2275,1710,1593,1745,1562,1863,1317,1687,1271,1871,1694,2335,2054,1684,1844,2016,1329,1478,1947,1453,1592,1485,1747,1894,2058,1702,1889,1558,1600,1450,1464,1608,1770,1899,1929,1683,1759,1538,1793,1711,1262,1375,1783,2133,1831,1818,1759,1386,1232,1730,2000,2028,1246,1261,2236,1791,1616,2070,1438,1824,1654,1209,1831,1504,2521,1453,2278,1458,1554,2209,1931,1658,1432,1258,2024,2258,1758,1693,1399,1611,1485,1972,2100,1921,2005,1283,1805,1535,1634,1223,1911,1280,1635,1239,1691,2107,1961,1299,2004,1758,1738,1531,1581,1386,1832,1559,1685,1699,1420,1793,1974,1451,1423,1104,1928,1363,1560,1697,1628,1957,2111,1847,1406,1810,2023,1312,1502,2360,1648,1707,1705,1643,1694,1750,1723,1639,2292,2313,2002,1606,1424,1651,1649,1837,1795,1667,1604,1419,2491,1694,1326,1656,1948,1263,1584,1893,1950,1414,1594,1975,1869,1263,2104,1273,1510,1726,1969,1499,1397,1608,1407,1133,1734,2061,1387,1813,1855,1466,1417,1658,1337,1652,1619,2134,2018,2144,1919,2051,1474,1803,1767,1404,1618,1703,1665,1995,1559,1302,1708,1842,1555,2142,1646,2335,1848,1398,1627,1388,1648,1403,1686,1678,2068,1450,1413,1119,1866,1545,1787,1584,1185,1268,1784,1766,1767,1844,1214,1568,1813,2229,2114,1118,2507,1614,1913,1540,1327,1599,1488,1724,1004,1623,1951,1664,1361,1642
1710,1807,2115,1701,2597,2006,2468,2113,1737,1986,1816,1773,1860,1489,2398,2001,1747,1568,2409,2247,1800,1670,2341,2010,1754,1858,1814,2342,1864,1512,1788,2066,2430,1800,2467,1680,2211,2201,1797,1586,1664,1885,2032,1820,2096,2060,1726,1644,2510,1871,2035,1753,1330,1549,1670,1664,1924,2396,2129,2470,2110,2008,1470,2882,1496,2102,1617,2255,2400,2161,1916,1610,2043,1758,2434,2063,2260,2502,1877,1705,1717,2187,1944,1592,1498,1912,1703,2523,1796,1577,1586,2358,2339,2372,2175,1996,2325,2026,1760,2167,1861,1693,1774,1950,1542,2065,1642,1911,2198,1465,2908,1733,1812,1917,1766,1732,1638,2355,1705,1745,2057,2056,1661,1560,2375,2593,1356,2125,1875,2171,1659,2392,2082,1971,1894,1803,1987,1961,1911,2418,2484,1907,1701,2662,1967,1786,1938,1681,2230,1917,2035,1972,1344,2138,1698,2004,1939,1972,1486,875,1707,2066,2403,1669,1899,1927,1964,2331,2373,2099,1797,2272,1835,1591,2063,1921,1920,2457,1325,2439,1811,1663,2120,2283,1928,2297,2076,2013,1866,1956,1770,1044,1724,1701,1824,2385,2474,1890,1605,1983,1621,2236,2427,2031,2271,2370,2035,2519,1774,1739,2099,2579,1870,2017,2729,2152,1465,1964,2433,1627,2349,1654,1836,2157,2444,2019,2236,2232,1923,2074,2500,2534,2137,1426,1307,2094,1539,1950,1900,3000,1651,2054,1848,2486,2005,1854,2170,2517,1968,1488,1694,1942,2497,1635,2608,1954,1743,2081,1650,1718,1336,1645,2057,1717,1586,1356,1460,2427,2129,1444,1822,1680,2250,2540,1848,1476,2608,1775,1778,2297,2311,1928,2041,2053,2220,2485,2227,1405,1764,1975,2605,1732,1714,1840,1903,2668,2076,1475,1849,1463,2326,1705,2289,2476,2123,2456,1926,1995,2394,1714,1988,2639,1504,1573,1467,2119,2258,2087,1545,1742,1736,2460,2106,1968,2299,2119,1718,1732,1625,1801,1552,1857,2176,1708,1641,1683,1973,2030,1792,1521,1790,1707,2182,2000,1681,2241,2034,2040,2160,1930,2021,1897,2274,1613,1731,1215,2051,1937,1990,1707,2174,1729,1799,1743,1810,1906,1956,1865,2480,1838,2264,2141,1908,2049,2268,1637,1712,1653,2096,2153,2218,1820,1741,1686,1777,1568,1981,2035,1552,1681,1490,1429,2077,1668,2152,1786,1740,1797,2370,1849,1866,2256,2572,1926,2124,2443,1768,1985,1925,1747,1843,1655,1665,2245,1861,2048,1807,2591,1932,1744,2249,1737,1654,1747,1818,1576,2266,1711,1599,2150,1343,2312,2145,1824,2093,2245,1882,1498,1090,1795,2441,1981,1654,2025,2034,2844,1931,2586,2807,2410,1890,1667,1551,1728,1808,1754,1578,2085,1608,1970,1497,1626,1779,1677,1646,1953,1851,1704,2243,2089,1973,2437,1738,1415,1956,1105,1817,2701,1756,1775,1729,1987,2269,2334,2508,2048,1664,2074,1765,1767,2597,1747,1670,2477,1971,1910,2129,1743,1233,2171,1663,2121,1893,1849,2050,1816,1978,1977,2358,2326,1717,2139,2187,1609,1564,2018,1730,1992,1919,2050,2394,2352,1307,2167,2145,1864,1877,1934,1833,1942,1973,1584,2746,1816,1727,2116,2140,1827,1971,2418,1829,2510,1932,1893,2594,1564,1715,1721,1334,2159,2520,1704,1812,2024,2115,1555,1775,2135,2306,2467,1478,2556,1906,1467,1814,1875,1950,2448,2403,1694,1518,1313,2393,2027,2225,1444,1886,2066,1559,2096,1783,1596,2309,2042,2234,2710,1591,1951,2077,1864,1506,2368,1886,1803,1545,2223,2026,1681,1520,2306,2348,1772,1928,1989,1519,1923,2323,1909,1924,1995,2172,1711,2045,2318,2377,1743,1903,2321,1376,2229,1702,1863,2130,1719,2064,1897,2310,2212,2059,1874,1858,1942,2347,1651,1917,1800,1772,2004,2356,2333,2170,1687,1541,1871,1874,2022,2171,1907,1965,2202,2688,2311,1790,1796,2014,2261,2071,2058,2216,2641,1554,1704,1806,2529,2122,1615,2638,1740,1331,1841,1939,2087,2136,2167,1885,1779,1454,1658,2409,1768,2665,1558,1808,2118,1583,1881,1975,1619,2163,1868,2436,2014,2028,1796,2510,2521,2100,1720,1794,2346,1654,1423,2212,1674,1751,1786,1760,2167,1882,1682,1557,2204,1457,2046,1846,1902,1648,1732,1552,2407,1729,1643,2419,2385,2297,2540,3056,1926,1396,2260,1975,1865,1948,1928,1631,2695,1808,2010,2031,2088,1918,2025,2040,1915,2229,1761,2759,2221,1595,1672,1645,2106,1940,1293,2088,1947,2066,1799,2076,1459,1879,1625,1562,2086,2270,1926,2186,1851,2103,1452,1858,1483,2362,2432,1800,2519,2115,2086,1930,1851,1488,2087,1707,1897,2102,2184,1932,2068,1849,1841,2095,1876,1865,1621,2056,1864,1523,1796,1882,2140,2010,1891,2243,2775,1584,1942,2225,1750,1926,2073,2569,1478,1802,1693,1224,1936,1843,2046,1756,1360,2309,1622,1950,2289,1928,1925,1807,2065,1894,2628,2478,1561,2346,1946,2125,1954,1827,1981,1597,1821,1950,2262,1453,1890,2238,2527,1969,2062,2172,1494,1638,1738,1682,1799,2028,1866,2160,2320,1870,1960,1809,2327,1972,1366,1580,1734,2118,1607,2596,1636,2088,2105,2121,1838,1721,1573,2015,1920,1809,1840,2155,2068,1619,1972,1984,2247,1971,2233,2413,2489,1889,1897,2040,2253,1956,1923,1574,1563,2090,2257,1996,1886,1524,1936,1563,2113,1640,2124,1546,1997,2164,1967,1818,1895,1703,2218,2533,1869,2000,1804,1748,1647,2192,1884,2084,2018,2590,1966,1700,1827,1827,1816,2235,2502,1889,2200,1959,2051,1982,1967,1805,1815,1766,2551,2019,2039,1849,2247,1959,1710,1569,2302,2158,1839,1896,2710,1762,2376,1477,1802,1463,1910,1734,1937,2031,2708,2316,1886,1929,1794,2436,1630,1769,1324,2454,2150,1375,1691,1648,1981,2045,2500,1415,1653,2157,2677,1704,1868,2169,2402,1522,2156,2209,1772,1765,2469,2075,2196,2244,2095,1520,2396,1780,2353,1988,1681,1741,1776,2015,1581,1663,1965,1612,1489,1524,2303,1499,1648,2181,2427,2192,1906,2306,1762,2116,1946,1970,1959,2230,2282,1647,1959,2376,2188,1802,1600,1359,1744,1725,2478,1737,2282,1676,1814,1314,2205,2069,2410,1941,2084,1827,1651,1849,2098,2209,1869,1753,2281,1983,1999,2534,1816,2449,1526,1408,1451,1553,1873,1695,1666,1475,1709,1390,1984,2683,1779,1729,1910,2360,1668,1876,1663,2067,1778,2335,1537,1858,2119,1798,2200,1568,1908,1625,2375,2390,2599,1966,1746,2051,1583,1539,2647,2418,1779,1971,1788,2482,1928,1743,2173,2095,1736,1948,1936,2155,1953,1605,2015,1513,1991,1791,1960,1798,2179,1770,2053,1764,2079,2357,2425,2078,2157,1823,1959,1919,1971,2157,2505,1401,1795,1891,1817,1968,2060,2543,2345,2545,2261,2217,1757,1558,1530,2192,1667,2329,1664,1777,2292,2009,2128,2079,1691,2660,1910,1531,2342,2190,1809,1907,1925,1764,1599,1546,1661,2639,2073,1818,1457,2244,1991,1956,1686,1440,1677,1513,1654,1739,1429,1822,1998,1933,2469,2074,2250,1883,1983,2137,2349,2133,2198,1755,2057,1934,2418,2077,2062,2420,1834,2009,2077,2058,1729,1635,1925,1374,1660,1813,1749,1418,2408,2014,2571,1756,2998,2245,1915,1828,1846,1825,2483,2115,2339,2129,2181,2108,2360,2017,2694,1504,2210,1556,2125,2480,1798,2420,1373,1739,1883,1580,1992,1640,1931,1760,1703,1655,1973,1339,1527,1486,1710,1945,1685,1982,1985,1741,1569,1504,1922,1495,1873,2120,2119,2056,2304,2261,1522,1790,2325,2051,1362,1652,2184,1635,1783,1378,1913,2403,2169,1978,2263,1879,2433,1638,2379,1910,1976,1505,1789,1586,1300,1894,1059,2068,1582,2687,1406,2031,1985,2665,2130,1943,2116,2170,1932,2107,1975,1967,2058,1961,1189,1579,1595,2308,2558,2278,1667,2036,2515,0,2156,1694,1573,2234,1927,1567,2141,1856,1789,1830,1700,1862,2037,1855,1973,1691,2020,2496,2117,1870,1948,1903,1489,1561,1897,2297,2414,1359,1672,2283,1687,2065,1543,2134,1793,2736,1923,1786,2139,1822,2523,2614,1811,1552,1735,1959,1047,1637,1765,1745,1832,1582,2351,2584,1806,2112,1916,1497,2418,1818,1748,2548,1965,2141,2487,2280,1500,2093,1476,1932,2280,1539,1242,2476,2765,957,1491,2019,1574,2722,1746,2086,1929,2388,2382,1523,1529,2375,2059,2155,2312,1828,1672,1526,1762,1425,2525,2264,1667,1791,2078,1716,2372,2350,1470,1843,1587,2324,2640,2188,2141,2474,1877,1625,1643,2320,2031,1782,1866,1985,2380,2223,2310,1858,1509,2031,1859,2398,2057,1944,2573,2460,2088,2559,2085,2301,2020,1677,2264,2320,2001,1672,2705,2006,1958,2647,2155,1999,2158,1576,1921,1800,1716,1894,2025,1985,1815,1917,2486,2218,1902,1672,2405,2076,1443,1989,1814,1989,1494,1398,1844,1916,1314,2144,1920,1974,1958,2352,1525,1928,1648,1729,1833,1993,2329,1843,1630,2507,2097,2203,1685,1660,1843,2305,2350,1865,2119,1819,1439,1998,2214,2328,1859,1635,1589,1796,1873,1719,1759,1902,2769,1712,2022,1596,1962,1872,1696,2130,1843,2432,1873,2527,2058,1790,1719,1556,2161,2211,2048,1457,1900,2184,1679,1915,2082,1838,1809,2016,1679,2063,2251,2200,1518,1357,2131,2023,1710,2005,2373,1653,2611,2126,1772,2244,1653,2040,2062,2343,1889,1431,2006,1852,1828,1714,2019,1994,2032,1887,1659,1883,1544,1741,1936,2244,2168,2328,2182,2162,1989,1948,2345,2000,1945,2857,2051,2609,1529,2665,1424,2479,1848,1451,2044,2301,1708,2122,2062,1446,1573,2465,1409,1790,1515,2225,1983,1582,2222,2075,1681,1777,2170,2098,1656,1554,1712,2158,1556,2104,2184,1711,2343,1935,2618,1553,2354,1498,1644,2110,1575,1771,884,2609,1227,2550,2634,1733,1910,1805,1914,2190,1956,1492,2033,1686,1842,2218,1265,2152,2279,1468,1789,1465,2080,2225,1870,2057,1923,1514,2017,2531,2143,2018,1675,1845,1548,2053,1838,2155,1755,2681,1707,1907,1957,1560,2090,2660,1806,2159,1711,1563,2399,2102,1740,2303,2197,2180,2536,2170,2019,2146,2045,2550,1754,2108,1612,1646,2316,1870,1750,2115,2052,2295,1538,2265,1908,1482,2045,1812,1739,1658,1655,1816,1779,1967,1664,1588,1356,2286,2050,1803,1841,1493,2276,1967,1981,1623,1653,1690,2370,1958,1919,1799,2256,1917,2103,1991,2177,2185,1823,2213,2027,2278,2712,2163,2428,1571,2081,1787,2054,2186,2398,2012,2064,1816,1749,1774,2187,1778,1475,2348,1680,1762,1514,2272,1993,1890,2429,1805,1676,1690,1662,2107,1955,1696,2545,1841,2382,1841,1901,2086,1862,2021,1748,2044,2223,1821,2816,1933,2321,1578,2098,2081,1927,2652,2303,2139,2383,2318,1550,2549,2133,1746,1691,1229,1909,1858,2031,2718,1903,1631,2203,2052,2117,1795,2021,2016,1943,1624,1889,1711,1662,1820,1887,2092,1492,2079,1950,1661,2474,1760,1692,1751,1569,1583,1646,1635,1979,1602,2199,2568,1783,1505,1593,2237,2043,1976,1831,1540,1709,1471,1615,2232,1479,2037,2581,2062,1570,1860,1779,1938,1826,1936,1742,1582,1697,2163,1635,2064,1865,2222,2185,2122,2143,1971,2057,1660,2080,1991,2820,2720,2061,1938,2102,2466,1545,1984,2173,1711,2475,1782,2414,2121,1490,1778,2395,1969,2003,2004,1801,2016,2273,2120,2098,1983,1953,1748,2363,2128,1672,2074,2531,2203,2087,2288,2002,2637,1956,2027,2112,1946,2028,1746,2148,1858,1886,1555,1753,2408,1730,1525,2142,1653,2829,1871,2079,2030,1573,1594,2427,2564,2287,1740,2010,2259,1952,2143,1919,1857,1550,2073,2321,2378,1315,1989,1678,1720,2295,2124,1556,1959,1922,2157,1825,1859,2799,1828,2117,1768,1940,2222,1835,1571,2117,1902,1429,1617,1948,1921,1323,1647,2126,1969,2095,2466,1453,1879,2433,1604,2630,1892,2032,1609,1852,2537,2159,2024,2307,1811,2170,2180,1619,1526,2384,1793,2227,2472,1803,2072,1752,2116,2203,2664,1732,1625,1478,1884,1699,2490,1750,1975,1855,2152,2134,2155,1983,1277,1791,1989,2044,1592,1861,2001,2066,2018,1862,2054,1872,1877,2192,1680,1673,1672,1989,1813,1819,1842,2159,2191,2100,1964,2151,2602,2474,2331,1855,1891,2160,1651,1559,1010,1597,2031,2440,1747,1517,1835,2074,1892,1868,1873,2340,1667,1596,1699,2271,1728,1743,1710,2595,1847,2286,1589,2316,1739,1603,2133,2274,2140,2247,1630,1807,2472,1887,2178,2630,1954,2016,2495,1539,1812,1926,1802,2082,1861,1789,1868,2725,2542,1909,1864,1200,1827,1712,1509,2302,2191,1855,1695,2090,1791,1514,2113,2058,1497,1892,1700,2401,1622,1854,1793,2053,1770,2207,2484,1831,2612,1758,1993,2718,2071,2152,2135,1133,1905,1813,2481,2089,1495,2357,1852,1876,2590,2007,1818,1786,1912,1567,1619,1820,1104,1880,1738,2635,1752,2217,2109,1745,1831,2022,1999,2125,1904,1630,1706,2502,2472,2513,2112,1481,2081,1632,1954,2123,2056,2012,2503,2196,1591,2115,1523,2135,2364,2374,2349,1915,1585,1481,1779,1691,1798,2211,2487,1917,1830,1944,1811,2308,2248,1589,1588,2177,1603,2075,1495,1946,1842,1589,1453,1824,1713,1942,2320,1260,2211,1506,1648,1807,2519,1968,1579,1784,1820,1801,1782,2641,1744,2633,1774,1626,2293,2306,2265,1902,1787,2124,1803,1914,2040,1750,1668,1543,2193,1968,1701,2044,1981,2140,1716,1914,1735,2316,2592,2139,1740,2377,1738,2067,2339,1857,1752,1933,2318,2118,2253,1434,2131,1761,1545,2081,1773,2190,1795,1784,2451,2284,1853,1897,2263,2004,2037,1896,1477,1409,2528,2249,1999,1880,2255,2231,1522,1559,1684,1495,2326,1905,1951,2252,1694,1791,1585,1813,2300,1691,2056,1615,1660,1587,1674,1909,2041,1820,1970,1830,1699,2825,1507,1974,1971,2055,2093,1366,2058,1669,2096,1603,1555,1975,1440,1938,1963,1900,2584,2383,2415,1747,2404,2045,2109,1628,1894,1837,2331,1883,1442,2274,1493,2137,1753,1747,2308,1501,1508,1799,2559,1941,2375,1426,2199,2172,1972,2132,2332,2262,2337,1974,2221,2008,2683,2658,1713,1451,2371,1830,2469,2168,2247,2231,2130,2025,2297,2043,2072,1827,1879,1489,2239,1919,1969,2364,2412,1682,2075,1674,2116,1910,1847,2251,1661,2138,2467,1663,1860,1936,1576,2194,1643,2029,1325,2673,1993,1738,1653,2276,1597,2085,2024,1770,1708,2367,1554,1722,2713,2012,2432,2008,1883,2376,2463,1802,1749,1771,2209,1946,1855,2431,1499,1783,2290,1490,1790,1750,2092,1472,2684,1620,1615,2547,1646,1478,2532,1611,1566,1769,1611,2021,1093,2224,1804,1738,1872,1954,2073,2407,1575,2359,1758,1807,2018,1915,1468,1790,1920,1601,2151,2178,1975,1637,2324,1647,2225,1680,1986,1518,1760,2230,1909,2030,2154,1846,2208,1996,1643,2382,2254,2490,2060,1910,1891,1824,2144,2508,1675,2247,1690,1801,2328,2109,2175,2122,2087,1911,1699,2035,2051,2594,2394,2073,1979,1982,1487,1483,2012,2133,1689,1468,1626,2757,2052,1637,1931,1941,1896,2282,2086,1620,1970,1560,1938,2367,2033,969,1761,1238,1814,2163,2163,1827,1624,2585,1686,2141,1609,1719,1621,1893,1908,2053,1912,1832,1629,1687,1848,2028,1857,1656,1591,1893,2320,2012,2050,1703,1988,2526,2009,1958,1949,2113,1908,1795,1949,2152,1581,2248,2152,2159,1880,1767,1094,1799,2251,1972,2587,1961,2379,2118,1681,1529,1607,2043,1955,2116,2236,1504,2369,2931,1578,1769,2025,2204,2119,1778,2005,2364,2247,2335,2232,2144,1580,2042,2113,1840,1873,1712,2356,2485,1588,2749,1981,1725,2078,1913,2021,1663,1891,1866,2678,1922,1579,2506,2605,2504,2063,2357,2694,1929,1817,1946,1615,1651,1989,2399,1476,1994,1878,1552,2109,2078,2035,2091,2005,2009,1824,2296,2472,1872,2343,2069,2019,1995,2852,1744,2312,2402,1990,1720,1637,2308,2013,2117,1952,1596,2186,1564,1946,2195,1991,1774,1991,2263,2204,2442,1971,1642,1660,1700,1944,1926,1802,2275,2438,1668,2369,1500,1895,2608,1440,1845,1923,2182,2477,1937,1653,2705,2186,888,2172,1696,1821,2536,1605,2330,1611,1909,2206,2127,1953,1883,1936,1538,2223,2040,1921,2524,1805,2015,2328,1681,1826,1455,1675,1778,1775,1894,1976,1843,2583,1973,1816,1991,1796,2125,1512,1971,1466,2160,1930,2663,2371,1952,2111,2303,1538,1703,2216,1683,1822,1700,2004,2173,2385,2025,2017,1809,1829,1706,1672,1845,2035,2201,2207,1926,2016,1763,2061,1966,1463,1596,2044,2442,2093,2075,2012,1694,1406,2037,2326,2358,1440,1498,2581,2063,1862,2151,1641,2119,1886,1399,2101,1735,2880,1685,2599,1692,1784,2503,2213,1934,1662,1440,2311,2567,2010,1973,1603,1841,1707,2248,2396,2202,2290,1464,2074,1796,1892,1413,2184,1482,1933,1421,1945,2454,2238,1516,2320,2011,1998,1769,1811,1594,2101,1796,1953,1960,1735,2051,2274,1580,1726,1294,2228,1550,1781,1989,1889,2209,2419,2101,1606,2062,2323,1532,1710,2731,1915,1820,1999,1881,1928,2044,2098,1896,2635,2667,2286,1900,1638,1914,1889,2125,2050,1901,1849,1655,2843,1967,1513,1902,2214,1453,1816,2168,2239,1619,1832,2264,2154,1441,2448,1477,1738,2001,2247,1698,1619,1870,1596,1309,2525,2359,1617,2050,2207,1711,1635,1891,1538,1926,1845,2458,2330,2487,2184,2363,1691,2048,2070,1610,1865,1951,1926,2291,1822,1492,1970,2106,1783,2473,1904,2669,2104,1658,1861,1591,1890,1622,1925,1955,2386,1664,1617,1325,2128,1779,2064,1812,1420,1448,2046,2017,2039,2125,1404,1654,2104,2506,2472,1194,2993,1833,2229,1772,1537,1829,1767,1963,1157,1862,2254,1924,1564,1906
